BEGIN_SCAN_DATA
	FORMAT=CC-Export V1.9                  
	FILE_CREATION_DATE=04-Jul-2016 14:55:16
	LAST_MODIFIED=04-Jul-2016 14:55:16
	BEGIN_SCAN  1
		TASK_NAME=tba PDD Profiles
		PROGRAM=tbaScan
		MEAS_DATE=04-Jul-2016 14:52:43
		LINAC=L1 ELEKTA VERSA
		MODALITY=EL
		ISOCENTER=1000.00
		INPLANE_AXIS=Inplane
		CROSSPLANE_AXIS=Crossplane
		DEPTH_AXIS=Depth
		INPLANE_AXIS_DIR=TARGET_GUN
		CROSSPLANE_AXIS_DIR=LEFT_RIGHT
		DEPTH_AXIS_DIR=UP_DOWN
		ENERGY=15.00
		NOMINAL_DMAX=40.00
		SSD=1000.00
		SCD=450.00
		BLOCK=0
		WEDGE=App10x10
		FIELD_INPLANE=100.00
		FIELD_CROSSPLANE=100.00
		FIELD_TYPE=RECTANGULAR
		GANTRY=0.00
		GANTRY_UPRIGHT_POSITION=0
		GANTRY_ROTATION=CW
		COLL_ANGLE=0.00
		COLL_OFFSET_INPLANE=0.00
		COLL_OFFSET_CROSSPLANE=0.00
		SCAN_DEVICE=MP3
		SCAN_DEVICE_SETUP=BARA_LEFT_RIGHT
		ELECTROMETER=TANDEM
		RANGE_FIELD=AUTO
		RANGE_REFERENCE=AUTO
		DETECTOR=THIMBLE_CHAMBER
		DETECTOR_RADIUS=1.00
		DETECTOR_NAME=PTW 31014 PinPoint
		DETECTOR_SN=0000
		DETECTOR_CALIBRATION=2500000000.00
		DETECTOR_IS_CALIBRATED=0
		DETECTOR_REFERENCE=THIMBLE_CHAMBER
		DETECTOR_REFERENCE_SUBCODE=SEMIFLEX
		DETECTOR_REFERENCE_RADIUS=2.75
		DETECTOR_REFERENCE_NAME=PTW 31010 Semiflex
		DETECTOR_REFERENCE_SN=0000
		DETECTOR_REFERENCE_IS_CALIBRATED=0
		DETECTOR_REFERENCE_CALIBRATION=300000000.00
		DETECTOR_HV=400.0
		DETECTOR_REFERENCE_HV=400.0
		REF_FIELD_DEPTH=0.00
		REF_FIELD_DEFINED=ISOCENTER
		REF_FIELD_INPLANE=100.00
		REF_FIELD_CROSSPLANE=100.00
		REF_SCAN_POSITIONS=0.00;1.00;2.00;3.00;4.00;5.00;6.00;7.00;8.00;9.00;10.00;11.00;12.00;13.00;14.00;15.00;16.00;17.00;18.00;19.00;20.00;21.00;22.00;23.00;24.00;25.00;26.00;27.00;28.00;29.00;30.00;31.00;32.00;33.00;34.00;35.00;36.00;37.00;38.00;39.00;40.00;41.00;42.00;43.00;44.00;45.00;46.00;47.00;48.00;49.00;50.00;51.00;52.00;53.00;54.00;55.00;56.00;57.00;58.00;59.00;60.00;61.00;62.00;63.00;64.00;65.00;66.00;67.00;68.00;69.00;70.00;71.00;72.00;73.00;74.00;75.00;76.00;77.00;78.00;79.00;80.00;81.00;82.00;83.00;84.00;85.00;86.00;87.00;88.00;89.00;90.00;91.00;92.00;93.00;94.00;95.00;96.00;97.00;98.00;99.00;100.00;
		SCAN_CURVETYPE=PDD
		SCAN_OFFAXIS_INPLANE=0.00
		SCAN_OFFAXIS_CROSSPLANE=0.00
		SCAN_ANGLE=0.00
		SCAN_DIAGONAL=NOT_DIAGONAL
		SCAN_DIRECTION=NEGATIVE
		MEAS_MEDIUM=WATER
		MEAS_PRESET=REFERENCE_DOSEMETER
		MEAS_TIME=0.200
		MEAS_UNIT=A.U.
		SCAN_SPEEDS=20.00; 2.00;40.00; 10.00;100.00; 20.00;400.00; 20.00;
		DELAY_TIMES=50.00; 0.800;150.00; 0.200;400.00; 0.000;
		PRESSURE=1013.25
		TEMPERATURE=20.00
		NORM_TEMPERATURE=20.00
		CORRECTION_FACTOR=1.0000
		EXPECTED_MAX_DOSE_RATE=3.00
		BEGIN_DATA
			0.00		885.79E-03		7.7202E+00
			1.00		893.11E-03		7.7292E+00
			2.00		908.53E-03		7.7202E+00
			3.00		917.54E-03		7.7310E+00
			4.00		925.75E-03		7.7256E+00
			5.00		931.41E-03		7.7238E+00
			6.00		936.09E-03		7.7220E+00
			7.00		940.58E-03		7.7202E+00
			8.00		943.06E-03		7.7238E+00
			9.00		946.46E-03		7.7040E+00
			10.00		947.77E-03		7.7202E+00
			11.00		949.44E-03		7.7130E+00
			12.00		950.72E-03		7.7184E+00
			13.00		950.94E-03		7.7166E+00
			14.00		953.16E-03		7.7238E+00
			15.00		953.96E-03		7.7220E+00
			16.00		956.83E-03		7.7130E+00
			17.00		956.24E-03		7.7256E+00
			18.00		955.85E-03		7.7256E+00
			19.00		955.38E-03		7.7184E+00
			20.00		955.43E-03		7.7274E+00
			21.00		956.52E-03		7.7076E+00
			22.00		954.74E-03		7.7220E+00
			23.00		956.57E-03		7.7166E+00
			24.00		953.52E-03		7.7130E+00
			25.00		952.60E-03		7.7346E+00
			26.00		951.96E-03		7.7256E+00
			27.00		950.72E-03		7.7184E+00
			28.00		948.05E-03		7.7148E+00
			29.00		947.47E-03		7.7274E+00
			30.00		942.65E-03		7.7256E+00
			31.00		942.65E-03		7.7112E+00
			32.00		938.08E-03		7.7184E+00
			33.00		935.29E-03		7.7238E+00
			34.00		931.29E-03		7.7328E+00
			35.00		926.31E-03		7.7274E+00
			36.00		919.58E-03		7.7220E+00
			37.00		914.94E-03		7.7202E+00
			38.00		905.90E-03		7.7310E+00
			39.00		899.31E-03		7.7076E+00
			40.00		888.80E-03		7.7346E+00
			41.00		876.28E-03		7.7184E+00
			42.00		865.94E-03		7.7292E+00
			43.00		853.52E-03		7.7274E+00
			44.00		840.13E-03		7.7292E+00
			45.00		825.57E-03		7.7310E+00
			46.00		806.71E-03		7.7184E+00
			47.00		789.30E-03		7.7328E+00
			48.00		770.87E-03		7.7328E+00
			49.00		748.79E-03		7.7184E+00
			50.00		724.48E-03		7.7166E+00
			51.00		701.15E-03		7.7166E+00
			52.00		676.80E-03		7.7238E+00
			53.00		651.81E-03		7.7346E+00
			54.00		621.60E-03		7.7148E+00
			55.00		592.80E-03		7.7328E+00
			56.00		562.16E-03		7.7274E+00
			57.00		532.01E-03		7.7310E+00
			58.00		500.04E-03		7.7274E+00
			59.00		469.27E-03		7.7418E+00
			60.00		435.58E-03		7.7310E+00
			61.00		403.68E-03		7.7364E+00
			62.00		370.69E-03		7.7328E+00
			63.00		337.80E-03		7.7310E+00
			64.00		307.16E-03		7.7256E+00
			65.00		277.07E-03		7.7364E+00
			66.00		248.61E-03		7.7472E+00
			67.00		220.75E-03		7.7328E+00
			68.00		198.05E-03		7.7328E+00
			69.00		170.00E-03		7.7292E+00
			70.00		150.55E-03		7.7418E+00
			71.00		128.70E-03		7.7274E+00
			72.00		112.25E-03		7.7508E+00
			73.00		95.915E-03		7.7256E+00
			74.00		84.634E-03		7.7274E+00
			75.00		72.016E-03		7.7274E+00
			76.00		62.878E-03		7.7292E+00
			77.00		55.581E-03		7.7184E+00
			78.00		49.145E-03		7.7220E+00
			79.00		44.442E-03		7.7292E+00
			80.00		41.346E-03		7.7274E+00
			81.00		38.724E-03		7.7472E+00
			82.00		37.050E-03		7.7328E+00
			83.00		35.506E-03		7.7310E+00
			84.00		34.504E-03		7.7382E+00
			85.00		34.148E-03		7.7310E+00
			86.00		33.800E-03		7.7220E+00
			87.00		33.784E-03		7.7256E+00
			88.00		32.790E-03		7.7310E+00
			89.00		32.588E-03		7.7328E+00
			90.00		32.992E-03		7.7292E+00
			91.00		32.596E-03		7.7310E+00
			92.00		32.231E-03		7.7256E+00
			93.00		32.007E-03		7.7328E+00
			94.00		31.857E-03		7.7220E+00
			95.00		31.491E-03		7.7166E+00
			96.00		31.476E-03		7.7202E+00
			97.00		31.303E-03		7.7148E+00
			98.00		31.252E-03		7.7274E+00
			99.00		30.699E-03		7.7202E+00
			100.00		30.512E-03		7.7184E+00
		END_DATA
	END_SCAN  1
END_SCAN_DATA
