BEGIN_SCAN_DATA
	FORMAT=CC-Export V1.9                  
	FILE_CREATION_DATE=14-Sep-2022 13:15:58
	LAST_MODIFIED=14-Sep-2022 13:15:58
	BEGIN_SCAN  1
		TASK_NAME=tba PDD Profiles
		PROGRAM=WaterTankScans
		MEAS_DATE=14-Sep-2022 13:14:44
		LINAC=L2 ELEKTA VERSA
		MODALITY=X
		ISOCENTER=1000.00
		INPLANE_AXIS=Inplane
		CROSSPLANE_AXIS=Crossplane
		DEPTH_AXIS=Depth
		INPLANE_AXIS_DIR=GUN_TARGET
		CROSSPLANE_AXIS_DIR=LEFT_RIGHT
		DEPTH_AXIS_DIR=UP_DOWN
		ENERGY=6.00
		NOMINAL_DMAX=16.00
		SSD=1000.00
		BLOCK=0
		WEDGE_ANGLE=0.00
		FIELD_INPLANE=100.00
		FIELD_CROSSPLANE=100.00
		FIELD_TYPE=RECTANGULAR
		GANTRY=0.00
		GANTRY_UPRIGHT_POSITION=0
		GANTRY_ROTATION=CW
		COLL_ANGLE=0.00
		COLL_OFFSET_INPLANE=0.00
		COLL_OFFSET_CROSSPLANE=0.00
		SCAN_DEVICE=BeamScan
		SCAN_DEVICE_SETUP=BARA_LEFT_RIGHT
		ELECTROMETER=BeamScan
		RANGE_FIELD=LOW
		RANGE_REFERENCE=LOW
		DETECTOR=THIMBLE_CHAMBER
		DETECTOR_SUBCODE=SEMIFLEX
		DETECTOR_RADIUS=2.40
		DETECTOR_NAME=PTW Semiflex 3D (Field)
		DETECTOR_SN=141799
		DETECTOR_CALIBRATION=500000000.00
		DETECTOR_IS_CALIBRATED=1
		DETECTOR_REFERENCE=THIMBLE_CHAMBER
		DETECTOR_REFERENCE_SUBCODE=SEMIFLEX
		DETECTOR_REFERENCE_RADIUS=2.40
		DETECTOR_REFERENCE_NAME=PTW Semiflex 3D (REF)
		DETECTOR_REFERENCE_SN=141800
		DETECTOR_REFERENCE_IS_CALIBRATED=0
		DETECTOR_REFERENCE_CALIBRATION=500000000.00
		DETECTOR_HV=400.0
		DETECTOR_REFERENCE_HV=400.0
		DETECTOR_ORIENTATION=HORIZONTAL
		FILTER=FF
		SCAN_SPEED_PROFILE=0.00
		SCAN_PROF_SPEED_DEP=DEPTH
		SCAN_SPEED_PDD=5.00
		SCAN_PDD_SPEED_DEP=ENERGY
		REF_FIELD_DEPTH=0.00
		REF_FIELD_DEFINED=WATER_SURFACE
		REF_FIELD_INPLANE=100.00
		REF_FIELD_CROSSPLANE=100.00
		REF_SCAN_POSITIONS=0.00;1.00;2.00;3.00;4.00;5.00;6.00;7.00;8.00;9.00;10.00;11.00;12.00;13.00;14.00;15.00;16.00;17.00;18.00;19.00;20.00;21.00;22.00;23.00;24.00;25.00;26.00;27.00;28.00;29.00;30.00;31.00;32.00;33.00;34.00;35.00;36.00;37.00;38.00;39.00;40.00;41.00;42.00;43.00;44.00;45.00;46.00;47.00;48.00;49.00;50.00;51.00;52.00;53.00;54.00;55.00;56.00;57.00;58.00;59.00;60.00;61.00;62.00;63.00;64.00;65.00;66.00;67.00;68.00;69.00;70.00;71.00;72.00;73.00;74.00;75.00;76.00;77.00;78.00;79.00;80.00;81.00;82.00;83.00;84.00;85.00;86.00;87.00;88.00;89.00;90.00;91.00;92.00;93.00;94.00;95.00;96.00;97.00;98.00;99.00;100.00;101.00;102.00;103.00;104.00;105.00;106.00;107.00;108.00;109.00;110.00;111.00;112.00;113.00;114.00;115.00;116.00;117.00;118.00;119.00;120.00;121.00;122.00;123.00;124.00;125.00;126.00;127.00;128.00;129.00;130.00;131.00;132.00;133.00;134.00;135.00;136.00;137.00;138.00;139.00;140.00;141.00;142.00;143.00;144.00;145.00;146.00;147.00;148.00;149.00;150.00;151.00;152.00;153.00;154.00;155.00;156.00;157.00;158.00;159.00;160.00;161.00;162.00;163.00;164.00;165.00;166.00;167.00;168.00;169.00;170.00;171.00;172.00;173.00;174.00;175.00;176.00;177.00;178.00;179.00;180.00;181.00;182.00;183.00;184.00;185.00;186.00;187.00;188.00;189.00;190.00;191.00;192.00;193.00;194.00;195.00;196.00;197.00;198.00;199.00;200.00;201.00;202.00;203.00;204.00;205.00;206.00;207.00;208.00;209.00;210.00;211.00;212.00;213.00;214.00;215.00;216.00;217.00;218.00;219.00;220.00;221.00;222.00;223.00;224.00;225.00;226.00;227.00;228.00;229.00;230.00;231.00;232.00;233.00;234.00;235.00;236.00;237.00;238.00;239.00;240.00;241.00;242.00;243.00;244.00;245.00;246.00;247.00;248.00;249.00;250.00;251.00;252.00;253.00;254.00;255.00;256.00;257.00;258.00;259.00;260.00;261.00;262.00;263.00;264.00;265.00;266.00;267.00;268.00;269.00;270.00;271.00;272.00;273.00;274.00;275.00;276.00;277.00;278.00;279.00;280.00;281.00;282.00;283.00;284.00;285.00;286.00;287.00;288.00;289.00;290.00;291.00;292.00;293.00;294.00;295.00;296.00;297.00;298.00;299.00;300.00;
		SCAN_CURVETYPE=PDD
		SCAN_OFFAXIS_INPLANE=0.00
		SCAN_OFFAXIS_CROSSPLANE=0.00
		SCAN_ANGLE=0.00
		SCAN_DIAGONAL=NOT_DIAGONAL
		SCAN_DIRECTION=NEGATIVE
		MEAS_MEDIUM=WATER
		MEAS_PRESET=MEAS_CONTINUOUS_REFERENCE_SCAN
		MEAS_TIME=0.200
		MEAS_UNIT=A.U.
		PRESSURE=1013.25
		TEMPERATURE=20.00
		NORM_TEMPERATURE=20.00
		CORRECTION_FACTOR=1.0000
		EXPECTED_MAX_DOSE_RATE=3.00
		BEGIN_DATA
			0.00		618.01E-03		3.4650E+00
			1.00		670.39E-03		3.4650E+00
			2.00		761.44E-03		3.4620E+00
			3.00		885.71E-03		3.4650E+00
			4.00		976.64E-03		3.4680E+00
			5.00		1.0485E+00		3.4650E+00
			6.00		1.1003E+00		3.4680E+00
			7.00		1.1437E+00		3.4650E+00
			8.00		1.1716E+00		3.4620E+00
			9.00		1.1939E+00		3.4650E+00
			10.00		1.2118E+00		3.4710E+00
			11.00		1.2213E+00		3.4710E+00
			12.00		1.2331E+00		3.4620E+00
			13.00		1.2366E+00		3.4620E+00
			14.00		1.2411E+00		3.4590E+00
			15.00		1.2420E+00		3.4590E+00
			16.00		1.2405E+00		3.4680E+00
			17.00		1.2377E+00		3.4710E+00
			18.00		1.2342E+00		3.4710E+00
			19.00		1.2359E+00		3.4590E+00
			20.00		1.2318E+00		3.4680E+00
			21.00		1.2264E+00		3.4710E+00
			22.00		1.2204E+00		3.4710E+00
			23.00		1.2156E+00		3.4650E+00
			24.00		1.2130E+00		3.4650E+00
			25.00		1.2076E+00		3.4680E+00
			26.00		1.2007E+00		3.4680E+00
			27.00		1.1945E+00		3.4710E+00
			28.00		1.1919E+00		3.4710E+00
			29.00		1.1867E+00		3.4710E+00
			30.00		1.1805E+00		3.4740E+00
			31.00		1.1787E+00		3.4590E+00
			32.00		1.1714E+00		3.4650E+00
			33.00		1.1678E+00		3.4680E+00
			34.00		1.1605E+00		3.4590E+00
			35.00		1.1557E+00		3.4680E+00
			36.00		1.1505E+00		3.4680E+00
			37.00		1.1456E+00		3.4620E+00
			38.00		1.1427E+00		3.4680E+00
			39.00		1.1331E+00		3.4710E+00
			40.00		1.1306E+00		3.4680E+00
			41.00		1.1246E+00		3.4680E+00
			42.00		1.1201E+00		3.4710E+00
			43.00		1.1141E+00		3.4710E+00
			44.00		1.1071E+00		3.4740E+00
			45.00		1.1037E+00		3.4710E+00
			46.00		1.0968E+00		3.4710E+00
			47.00		1.0944E+00		3.4650E+00
			48.00		1.0873E+00		3.4710E+00
			49.00		1.0846E+00		3.4740E+00
			50.00		1.0779E+00		3.4650E+00
			51.00		1.0699E+00		3.4740E+00
			52.00		1.0691E+00		3.4710E+00
			53.00		1.0641E+00		3.4620E+00
			54.00		1.0561E+00		3.4740E+00
			55.00		1.0491E+00		3.4800E+00
			56.00		1.0475E+00		3.4710E+00
			57.00		1.0442E+00		3.4620E+00
			58.00		1.0389E+00		3.4680E+00
			59.00		1.0329E+00		3.4650E+00
			60.00		1.0294E+00		3.4710E+00
			61.00		1.0234E+00		3.4680E+00
			62.00		1.0190E+00		3.4680E+00
			63.00		1.0112E+00		3.4710E+00
			64.00		1.0087E+00		3.4680E+00
			65.00		1.0009E+00		3.4740E+00
			66.00		999.13E-03		3.4650E+00
			67.00		993.09E-03		3.4710E+00
			68.00		988.75E-03		3.4680E+00
			69.00		984.42E-03		3.4650E+00
			70.00		979.22E-03		3.4650E+00
			71.00		974.03E-03		3.4650E+00
			72.00		970.54E-03		3.4620E+00
			73.00		964.50E-03		3.4650E+00
			74.00		958.51E-03		3.4710E+00
			75.00		955.02E-03		3.4680E+00
			76.00		949.74E-03		3.4620E+00
			77.00		945.45E-03		3.4650E+00
			78.00		941.18E-03		3.4680E+00
			79.00		935.88E-03		3.4620E+00
			80.00		931.66E-03		3.4680E+00
			81.00		926.41E-03		3.4650E+00
			82.00		921.28E-03		3.4680E+00
			83.00		916.81E-03		3.4620E+00
			84.00		914.93E-03		3.4560E+00
			85.00		910.59E-03		3.4560E+00
			86.00		904.76E-03		3.4650E+00
			87.00		898.79E-03		3.4680E+00
			88.00		894.37E-03		3.4650E+00
			89.00		888.31E-03		3.4650E+00
			90.00		884.85E-03		3.4650E+00
			91.00		881.39E-03		3.4650E+00
			92.00		876.19E-03		3.4650E+00
			93.00		872.51E-03		3.4590E+00
			94.00		868.40E-03		3.4650E+00
			95.00		862.16E-03		3.4650E+00
			96.00		858.01E-03		3.4650E+00
			97.00		853.64E-03		3.4620E+00
			98.00		849.44E-03		3.4650E+00
			99.00		845.33E-03		3.4680E+00
			100.00		841.28E-03		3.4590E+00
			101.00		836.40E-03		3.4620E+00
			102.00		833.16E-03		3.4650E+00
			103.00		827.27E-03		3.4650E+00
			104.00		823.72E-03		3.4650E+00
			105.00		818.27E-03		3.4650E+00
			106.00		816.10E-03		3.4650E+00
			107.00		811.35E-03		3.4620E+00
			108.00		804.50E-03		3.4650E+00
			109.00		803.64E-03		3.4590E+00
			110.00		798.61E-03		3.4590E+00
			111.00		793.85E-03		3.4620E+00
			112.00		788.38E-03		3.4590E+00
			113.00		784.85E-03		3.4650E+00
			114.00		780.87E-03		3.4650E+00
			115.00		779.25E-03		3.4560E+00
			116.00		774.09E-03		3.4500E+00
			117.00		768.98E-03		3.4530E+00
			118.00		766.18E-03		3.4590E+00
			119.00		762.08E-03		3.4650E+00
			120.00		755.41E-03		3.4650E+00
			121.00		752.65E-03		3.4590E+00
			122.00		749.61E-03		3.4530E+00
			123.00		744.63E-03		3.4620E+00
			124.00		742.51E-03		3.4440E+00
			125.00		735.76E-03		3.4650E+00
			126.00		734.23E-03		3.4530E+00
			127.00		729.69E-03		3.4560E+00
			128.00		726.45E-03		3.4590E+00
			129.00		720.73E-03		3.4590E+00
			130.00		717.90E-03		3.4530E+00
			131.00		715.00E-03		3.4590E+00
			132.00		710.76E-03		3.4560E+00
			133.00		706.14E-03		3.4680E+00
			134.00		703.55E-03		3.4620E+00
			135.00		697.66E-03		3.4650E+00
			136.00		695.06E-03		3.4620E+00
			137.00		692.01E-03		3.4560E+00
			138.00		689.67E-03		3.4560E+00
			139.00		684.23E-03		3.4620E+00
			140.00		680.50E-03		3.4620E+00
			141.00		678.19E-03		3.4530E+00
			142.00		674.65E-03		3.4560E+00
			143.00		669.56E-03		3.4590E+00
			144.00		666.32E-03		3.4650E+00
			145.00		663.68E-03		3.4530E+00
			146.00		659.88E-03		3.4470E+00
			147.00		655.65E-03		3.4500E+00
			148.00		652.39E-03		3.4530E+00
			149.00		648.65E-03		3.4470E+00
			150.00		646.09E-03		3.4560E+00
			151.00		642.45E-03		3.4560E+00
			152.00		639.65E-03		3.4500E+00
			153.00		636.51E-03		3.4590E+00
			154.00		633.04E-03		3.4410E+00
			155.00		629.13E-03		3.4500E+00
			156.00		625.63E-03		3.4530E+00
			157.00		622.59E-03		3.4530E+00
			158.00		619.16E-03		3.4440E+00
			159.00		615.81E-03		3.4530E+00
			160.00		612.08E-03		3.4530E+00
			161.00		608.15E-03		3.4620E+00
			162.00		603.56E-03		3.4560E+00
			163.00		600.43E-03		3.4650E+00
			164.00		598.70E-03		3.4530E+00
			165.00		596.08E-03		3.4440E+00
			166.00		592.53E-03		3.4530E+00
			167.00		588.62E-03		3.4530E+00
			168.00		585.22E-03		3.4500E+00
			169.00		583.51E-03		3.4560E+00
			170.00		579.24E-03		3.4530E+00
			171.00		576.98E-03		3.4530E+00
			172.00		573.59E-03		3.4530E+00
			173.00		571.50E-03		3.4530E+00
			174.00		568.14E-03		3.4560E+00
			175.00		565.48E-03		3.4500E+00
			176.00		562.35E-03		3.4500E+00
			177.00		558.96E-03		3.4500E+00
			178.00		555.27E-03		3.4470E+00
			179.00		552.08E-03		3.4560E+00
			180.00		548.53E-03		3.4620E+00
			181.00		547.18E-03		3.4590E+00
			182.00		544.39E-03		3.4470E+00
			183.00		542.12E-03		3.4470E+00
			184.00		538.09E-03		3.4500E+00
			185.00		535.65E-03		3.4500E+00
			186.00		532.09E-03		3.4500E+00
			187.00		530.66E-03		3.4440E+00
			188.00		525.96E-03		3.4440E+00
			189.00		524.22E-03		3.4440E+00
			190.00		521.43E-03		3.4440E+00
			191.00		519.06E-03		3.4470E+00
			192.00		515.20E-03		3.4530E+00
			193.00		512.89E-03		3.4440E+00
			194.00		509.81E-03		3.4560E+00
			195.00		506.96E-03		3.4470E+00
			196.00		504.62E-03		3.4380E+00
			197.00		501.74E-03		3.4500E+00
			198.00		499.04E-03		3.4500E+00
			199.00		496.52E-03		3.4440E+00
			200.00		493.80E-03		3.4380E+00
			201.00		491.39E-03		3.4500E+00
			202.00		488.08E-03		3.4470E+00
			203.00		486.31E-03		3.4410E+00
			204.00		483.87E-03		3.4410E+00
			205.00		480.64E-03		3.4560E+00
			206.00		478.24E-03		3.4470E+00
			207.00		474.37E-03		3.4530E+00
			208.00		472.96E-03		3.4500E+00
			209.00		471.78E-03		3.4440E+00
			210.00		467.42E-03		3.4530E+00
			211.00		466.17E-03		3.4410E+00
			212.00		462.25E-03		3.4410E+00
			213.00		461.04E-03		3.4500E+00
			214.00		458.21E-03		3.4530E+00
			215.00		455.84E-03		3.4440E+00
			216.00		453.48E-03		3.4440E+00
			217.00		451.39E-03		3.4500E+00
			218.00		448.95E-03		3.4380E+00
			219.00		444.86E-03		3.4440E+00
			220.00		444.08E-03		3.4440E+00
			221.00		442.36E-03		3.4350E+00
			222.00		438.85E-03		3.4440E+00
			223.00		436.24E-03		3.4440E+00
			224.00		435.58E-03		3.4320E+00
			225.00		431.39E-03		3.4500E+00
			226.00		429.38E-03		3.4410E+00
			227.00		426.66E-03		3.4440E+00
			228.00		426.27E-03		3.4380E+00
			229.00		423.76E-03		3.4350E+00
			230.00		420.40E-03		3.4410E+00
			231.00		419.11E-03		3.4380E+00
			232.00		415.95E-03		3.4410E+00
			233.00		413.43E-03		3.4410E+00
			234.00		411.50E-03		3.4440E+00
			235.00		409.50E-03		3.4410E+00
			236.00		406.28E-03		3.4380E+00
			237.00		405.67E-03		3.4380E+00
			238.00		402.44E-03		3.4410E+00
			239.00		400.78E-03		3.4440E+00
			240.00		398.34E-03		3.4320E+00
			241.00		397.20E-03		3.4260E+00
			242.00		395.72E-03		3.4320E+00
			243.00		393.28E-03		3.4350E+00
			244.00		391.19E-03		3.4380E+00
			245.00		388.06E-03		3.4410E+00
			246.00		386.55E-03		3.4350E+00
			247.00		383.33E-03		3.4380E+00
			248.00		382.30E-03		3.4410E+00
			249.00		380.86E-03		3.4320E+00
			250.00		377.84E-03		3.4380E+00
			251.00		375.68E-03		3.4410E+00
			252.00		374.50E-03		3.4350E+00
			253.00		372.66E-03		3.4350E+00
			254.00		370.25E-03		3.4290E+00
			255.00		368.89E-03		3.4230E+00
			256.00		366.49E-03		3.4200E+00
			257.00		364.83E-03		3.4290E+00
			258.00		363.06E-03		3.4350E+00
			259.00		360.42E-03		3.4260E+00
			260.00		358.83E-03		3.4320E+00
			261.00		357.19E-03		3.4410E+00
			262.00		355.20E-03		3.4350E+00
			263.00		352.75E-03		3.4410E+00
			264.00		350.92E-03		3.4290E+00
			265.00		349.21E-03		3.4260E+00
			266.00		347.46E-03		3.4260E+00
			267.00		344.68E-03		3.4380E+00
			268.00		343.06E-03		3.4350E+00
			269.00		341.73E-03		3.4290E+00
			270.00		339.18E-03		3.4380E+00
			271.00		338.86E-03		3.4350E+00
			272.00		336.01E-03		3.4320E+00
			273.00		334.47E-03		3.4290E+00
			274.00		332.81E-03		3.4290E+00
			275.00		331.64E-03		3.4230E+00
			276.00		329.46E-03		3.4320E+00
			277.00		328.17E-03		3.4290E+00
			278.00		326.09E-03		3.4380E+00
			279.00		323.60E-03		3.4320E+00
			280.00		322.47E-03		3.4320E+00
			281.00		320.77E-03		3.4380E+00
			282.00		319.07E-03		3.4290E+00
			283.00		317.41E-03		3.4290E+00
			284.00		316.00E-03		3.4320E+00
			285.00		313.72E-03		3.4320E+00
			286.00		311.61E-03		3.4380E+00
			287.00		310.49E-03		3.4320E+00
			288.00		308.84E-03		3.4260E+00
			289.00		306.99E-03		3.4350E+00
			290.00		306.04E-03		3.4260E+00
			291.00		304.99E-03		3.4290E+00
			292.00		303.06E-03		3.4290E+00
			293.00		301.31E-03		3.4350E+00
			294.00		299.21E-03		3.4200E+00
			295.00		297.81E-03		3.4320E+00
			296.00		296.15E-03		3.4260E+00
			297.00		294.58E-03		3.4290E+00
			298.00		293.34E-03		3.4260E+00
			299.00		291.85E-03		3.4230E+00
			300.00		291.06E-03		3.4230E+00
		END_DATA
	END_SCAN  1
END_SCAN_DATA
