BEGIN_SCAN_DATA
	FORMAT=CC-Export V1.9                  
	FILE_CREATION_DATE=19-Nov-2022 12:25:23
	LAST_MODIFIED=19-Nov-2022 12:25:23
	BEGIN_SCAN  1
		TASK_NAME=tba PDD Profiles
		PROGRAM=WaterTankScans
		MEAS_DATE=19-Nov-2022 12:19:38
		LINAC=L1 ELEKTA VERSA
		MODALITY=X
		ISOCENTER=1000.00
		INPLANE_AXIS=Inplane
		CROSSPLANE_AXIS=Crossplane
		DEPTH_AXIS=Depth
		INPLANE_AXIS_DIR=GUN_TARGET
		CROSSPLANE_AXIS_DIR=LEFT_RIGHT
		DEPTH_AXIS_DIR=UP_DOWN
		ENERGY=6.00
		NOMINAL_DMAX=16.00
		SSD=1000.00
		BLOCK=0
		WEDGE_ANGLE=0.00
		FIELD_INPLANE=100.00
		FIELD_CROSSPLANE=100.00
		FIELD_TYPE=RECTANGULAR
		GANTRY=0.00
		GANTRY_UPRIGHT_POSITION=0
		GANTRY_ROTATION=CW
		COLL_ANGLE=0.00
		COLL_OFFSET_INPLANE=0.00
		COLL_OFFSET_CROSSPLANE=0.00
		SCAN_DEVICE=BeamScan
		SCAN_DEVICE_SETUP=BARA_LEFT_RIGHT
		ELECTROMETER=BeamScan
		RANGE_FIELD=LOW
		RANGE_REFERENCE=LOW
		DETECTOR=THIMBLE_CHAMBER
		DETECTOR_SUBCODE=SEMIFLEX
		DETECTOR_RADIUS=2.40
		DETECTOR_NAME=PTW Semiflex 3D (Field)
		DETECTOR_SN=141799
		DETECTOR_CALIBRATION=500000000.00
		DETECTOR_IS_CALIBRATED=1
		DETECTOR_REFERENCE=THIMBLE_CHAMBER
		DETECTOR_REFERENCE_SUBCODE=SEMIFLEX
		DETECTOR_REFERENCE_RADIUS=2.40
		DETECTOR_REFERENCE_NAME=PTW Semiflex 3D (REF)
		DETECTOR_REFERENCE_SN=141800
		DETECTOR_REFERENCE_IS_CALIBRATED=0
		DETECTOR_REFERENCE_CALIBRATION=500000000.00
		DETECTOR_HV=400.0
		DETECTOR_REFERENCE_HV=400.0
		DETECTOR_ORIENTATION=HORIZONTAL
		FILTER=FF
		SCAN_SPEED_PROFILE=0.00
		SCAN_PROF_SPEED_DEP=DEPTH
		SCAN_SPEED_PDD=5.00
		SCAN_PDD_SPEED_DEP=ENERGY
		REF_FIELD_DEPTH=0.00
		REF_FIELD_DEFINED=WATER_SURFACE
		REF_FIELD_INPLANE=100.00
		REF_FIELD_CROSSPLANE=100.00
		REF_SCAN_POSITIONS=0.00;1.00;2.00;3.00;4.00;5.00;6.00;7.00;8.00;9.00;10.00;11.00;12.00;13.00;14.00;15.00;16.00;17.00;18.00;19.00;20.00;21.00;22.00;23.00;24.00;25.00;26.00;27.00;28.00;29.00;30.00;31.00;32.00;33.00;34.00;35.00;36.00;37.00;38.00;39.00;40.00;41.00;42.00;43.00;44.00;45.00;46.00;47.00;48.00;49.00;50.00;51.00;52.00;53.00;54.00;55.00;56.00;57.00;58.00;59.00;60.00;61.00;62.00;63.00;64.00;65.00;66.00;67.00;68.00;69.00;70.00;71.00;72.00;73.00;74.00;75.00;76.00;77.00;78.00;79.00;80.00;81.00;82.00;83.00;84.00;85.00;86.00;87.00;88.00;89.00;90.00;91.00;92.00;93.00;94.00;95.00;96.00;97.00;98.00;99.00;100.00;101.00;102.00;103.00;104.00;105.00;106.00;107.00;108.00;109.00;110.00;111.00;112.00;113.00;114.00;115.00;116.00;117.00;118.00;119.00;120.00;121.00;122.00;123.00;124.00;125.00;126.00;127.00;128.00;129.00;130.00;131.00;132.00;133.00;134.00;135.00;136.00;137.00;138.00;139.00;140.00;141.00;142.00;143.00;144.00;145.00;146.00;147.00;148.00;149.00;150.00;151.00;152.00;153.00;154.00;155.00;156.00;157.00;158.00;159.00;160.00;161.00;162.00;163.00;164.00;165.00;166.00;167.00;168.00;169.00;170.00;171.00;172.00;173.00;174.00;175.00;176.00;177.00;178.00;179.00;180.00;181.00;182.00;183.00;184.00;185.00;186.00;187.00;188.00;189.00;190.00;191.00;192.00;193.00;194.00;195.00;196.00;197.00;198.00;199.00;200.00;201.00;202.00;203.00;204.00;205.00;206.00;207.00;208.00;209.00;210.00;211.00;212.00;213.00;214.00;215.00;216.00;217.00;218.00;219.00;220.00;221.00;222.00;223.00;224.00;225.00;226.00;227.00;228.00;229.00;230.00;231.00;232.00;233.00;234.00;235.00;236.00;237.00;238.00;239.00;240.00;241.00;242.00;243.00;244.00;245.00;246.00;247.00;248.00;249.00;250.00;251.00;252.00;253.00;254.00;255.00;256.00;257.00;258.00;259.00;260.00;261.00;262.00;263.00;264.00;265.00;266.00;267.00;268.00;269.00;270.00;271.00;272.00;273.00;274.00;275.00;276.00;277.00;278.00;279.00;280.00;281.00;282.00;283.00;284.00;285.00;286.00;287.00;288.00;289.00;290.00;291.00;292.00;293.00;294.00;295.00;296.00;297.00;298.00;299.00;300.00;
		SCAN_CURVETYPE=PDD
		SCAN_OFFAXIS_INPLANE=0.00
		SCAN_OFFAXIS_CROSSPLANE=0.00
		SCAN_ANGLE=0.00
		SCAN_DIAGONAL=NOT_DIAGONAL
		SCAN_DIRECTION=NEGATIVE
		MEAS_MEDIUM=WATER
		MEAS_PRESET=MEAS_CONTINUOUS_SCAN
		MEAS_TIME=0.200
		MEAS_UNIT=Gy/min
		PRESSURE=1013.25
		TEMPERATURE=20.00
		NORM_TEMPERATURE=20.00
		CORRECTION_FACTOR=1.0000
		EXPECTED_MAX_DOSE_RATE=3.00
		BEGIN_DATA
			0.00		2.2083E+00
			1.00		2.3406E+00
			2.00		2.5623E+00
			3.00		2.9379E+00
			4.00		3.3600E+00
			5.00		3.6960E+00
			6.00		3.9360E+00
			7.00		4.1190E+00
			8.00		4.2450E+00
			9.00		4.3590E+00
			10.00		4.4370E+00
			11.00		4.4970E+00
			12.00		4.5300E+00
			13.00		4.5570E+00
			14.00		4.5810E+00
			15.00		4.5930E+00
			16.00		4.5900E+00
			17.00		4.5930E+00
			18.00		4.5810E+00
			19.00		4.5690E+00
			20.00		4.5540E+00
			21.00		4.5450E+00
			22.00		4.5300E+00
			23.00		4.5060E+00
			24.00		4.4820E+00
			25.00		4.4760E+00
			26.00		4.4550E+00
			27.00		4.4340E+00
			28.00		4.4130E+00
			29.00		4.4040E+00
			30.00		4.3830E+00
			31.00		4.3560E+00
			32.00		4.3380E+00
			33.00		4.3290E+00
			34.00		4.2990E+00
			35.00		4.2810E+00
			36.00		4.2630E+00
			37.00		4.2420E+00
			38.00		4.2270E+00
			39.00		4.2030E+00
			40.00		4.1910E+00
			41.00		4.1670E+00
			42.00		4.1460E+00
			43.00		4.1310E+00
			44.00		4.1160E+00
			45.00		4.0860E+00
			46.00		4.0650E+00
			47.00		4.0500E+00
			48.00		4.0350E+00
			49.00		4.0110E+00
			50.00		3.9930E+00
			51.00		3.9810E+00
			52.00		3.9540E+00
			53.00		3.9450E+00
			54.00		3.9240E+00
			55.00		3.9060E+00
			56.00		3.8850E+00
			57.00		3.8670E+00
			58.00		3.8520E+00
			59.00		3.8250E+00
			60.00		3.8040E+00
			61.00		3.7980E+00
			62.00		3.7770E+00
			63.00		3.7530E+00
			64.00		3.7350E+00
			65.00		3.7170E+00
			66.00		3.6930E+00
			67.00		3.6780E+00
			68.00		3.6660E+00
			69.00		3.6480E+00
			70.00		3.6240E+00
			71.00		3.6030E+00
			72.00		3.5940E+00
			73.00		3.5790E+00
			74.00		3.5580E+00
			75.00		3.5400E+00
			76.00		3.5190E+00
			77.00		3.4950E+00
			78.00		3.4920E+00
			79.00		3.4710E+00
			80.00		3.4500E+00
			81.00		3.4350E+00
			82.00		3.4230E+00
			83.00		3.3960E+00
			84.00		3.3840E+00
			85.00		3.3630E+00
			86.00		3.3450E+00
			87.00		3.3240E+00
			88.00		3.3030E+00
			89.00		3.2970E+00
			90.00		3.2700E+00
			91.00		3.2550E+00
			92.00		3.2430E+00
			93.00		3.2310E+00
			94.00		3.2070E+00
			95.00		3.1920E+00
			96.00		3.1830E+00
			97.00		3.1560E+00
			98.00		3.1350E+00
			99.00		3.1320E+00
			100.00		3.1110E+00
			101.00		3.0960E+00
			102.00		3.0780E+00
			103.00		3.0660E+00
			104.00		3.0480E+00
			105.00		3.0300E+00
			106.00		3.0180E+00
			107.00		3.0030E+00
			108.00		2.9733E+00
			109.00		2.9664E+00
			110.00		2.9565E+00
			111.00		2.9367E+00
			112.00		2.9181E+00
			113.00		2.9085E+00
			114.00		2.8941E+00
			115.00		2.8725E+00
			116.00		2.8599E+00
			117.00		2.8488E+00
			118.00		2.8284E+00
			119.00		2.8128E+00
			120.00		2.8044E+00
			121.00		2.7906E+00
			122.00		2.7738E+00
			123.00		2.7579E+00
			124.00		2.7480E+00
			125.00		2.7264E+00
			126.00		2.7063E+00
			127.00		2.7015E+00
			128.00		2.6817E+00
			129.00		2.6724E+00
			130.00		2.6565E+00
			131.00		2.6469E+00
			132.00		2.6250E+00
			133.00		2.6118E+00
			134.00		2.6031E+00
			135.00		2.5878E+00
			136.00		2.5692E+00
			137.00		2.5578E+00
			138.00		2.5455E+00
			139.00		2.5293E+00
			140.00		2.5173E+00
			141.00		2.5107E+00
			142.00		2.4912E+00
			143.00		2.4729E+00
			144.00		2.4651E+00
			145.00		2.4528E+00
			146.00		2.4369E+00
			147.00		2.4243E+00
			148.00		2.4180E+00
			149.00		2.4048E+00
			150.00		2.3892E+00
			151.00		2.3736E+00
			152.00		2.3586E+00
			153.00		2.3499E+00
			154.00		2.3337E+00
			155.00		2.3235E+00
			156.00		2.3094E+00
			157.00		2.2971E+00
			158.00		2.2854E+00
			159.00		2.2788E+00
			160.00		2.2638E+00
			161.00		2.2512E+00
			162.00		2.2353E+00
			163.00		2.2257E+00
			164.00		2.2107E+00
			165.00		2.1984E+00
			166.00		2.1951E+00
			167.00		2.1753E+00
			168.00		2.1678E+00
			169.00		2.1573E+00
			170.00		2.1438E+00
			171.00		2.1300E+00
			172.00		2.1198E+00
			173.00		2.1090E+00
			174.00		2.0991E+00
			175.00		2.0868E+00
			176.00		2.0730E+00
			177.00		2.0667E+00
			178.00		2.0538E+00
			179.00		2.0367E+00
			180.00		2.0328E+00
			181.00		2.0214E+00
			182.00		2.0076E+00
			183.00		1.9974E+00
			184.00		1.9899E+00
			185.00		1.9755E+00
			186.00		1.9644E+00
			187.00		1.9530E+00
			188.00		1.9485E+00
			189.00		1.9326E+00
			190.00		1.9215E+00
			191.00		1.9152E+00
			192.00		1.9035E+00
			193.00		1.8903E+00
			194.00		1.8813E+00
			195.00		1.8723E+00
			196.00		1.8603E+00
			197.00		1.8486E+00
			198.00		1.8369E+00
			199.00		1.8321E+00
			200.00		1.8183E+00
			201.00		1.8108E+00
			202.00		1.8036E+00
			203.00		1.7940E+00
			204.00		1.7817E+00
			205.00		1.7727E+00
			206.00		1.7655E+00
			207.00		1.7574E+00
			208.00		1.7412E+00
			209.00		1.7376E+00
			210.00		1.7274E+00
			211.00		1.7184E+00
			212.00		1.7079E+00
			213.00		1.6983E+00
			214.00		1.6938E+00
			215.00		1.6791E+00
			216.00		1.6677E+00
			217.00		1.6641E+00
			218.00		1.6536E+00
			219.00		1.6449E+00
			220.00		1.6305E+00
			221.00		1.6311E+00
			222.00		1.6179E+00
			223.00		1.6104E+00
			224.00		1.6011E+00
			225.00		1.5930E+00
			226.00		1.5852E+00
			227.00		1.5753E+00
			228.00		1.5606E+00
			229.00		1.5585E+00
			230.00		1.5519E+00
			231.00		1.5402E+00
			232.00		1.5345E+00
			233.00		1.5222E+00
			234.00		1.5186E+00
			235.00		1.5105E+00
			236.00		1.4997E+00
			237.00		1.4946E+00
			238.00		1.4829E+00
			239.00		1.4796E+00
			240.00		1.4712E+00
			241.00		1.4610E+00
			242.00		1.4538E+00
			243.00		1.4466E+00
			244.00		1.4376E+00
			245.00		1.4292E+00
			246.00		1.4265E+00
			247.00		1.4142E+00
			248.00		1.4043E+00
			249.00		1.3980E+00
			250.00		1.3926E+00
			251.00		1.3842E+00
			252.00		1.3770E+00
			253.00		1.3704E+00
			254.00		1.3635E+00
			255.00		1.3560E+00
			256.00		1.3476E+00
			257.00		1.3398E+00
			258.00		1.3356E+00
			259.00		1.3293E+00
			260.00		1.3206E+00
			261.00		1.3122E+00
			262.00		1.3053E+00
			263.00		1.3002E+00
			264.00		1.2933E+00
			265.00		1.2828E+00
			266.00		1.2789E+00
			267.00		1.2732E+00
			268.00		1.2681E+00
			269.00		1.2570E+00
			270.00		1.2504E+00
			271.00		1.2429E+00
			272.00		1.2393E+00
			273.00		1.2297E+00
			274.00		1.2249E+00
			275.00		1.2198E+00
			276.00		1.2120E+00
			277.00		1.2018E+00
			278.00		1.2009E+00
			279.00		1.1958E+00
			280.00		1.1832E+00
			281.00		1.1778E+00
			282.00		1.1730E+00
			283.00		1.1691E+00
			284.00		1.1568E+00
			285.00		1.1538E+00
			286.00		1.1490E+00
			287.00		1.1424E+00
			288.00		1.1385E+00
			289.00		1.1301E+00
			290.00		1.1262E+00
			291.00		1.1199E+00
			292.00		1.1121E+00
			293.00		1.1055E+00
			294.00		1.1016E+00
			295.00		1.0959E+00
			296.00		1.0887E+00
			297.00		1.0818E+00
			298.00		1.0779E+00
			299.00		1.0743E+00
			300.00		1.0671E+00
		END_DATA
	END_SCAN  1
END_SCAN_DATA
