BEGIN_SCAN_DATA
	FORMAT=CC-Export V1.9                  
	FILE_CREATION_DATE=03-Apr-2023 14:11:46
	LAST_MODIFIED=03-Apr-2023 14:11:46
	BEGIN_SCAN  1
		TASK_NAME=tba PDD Profiles
		PROGRAM=WaterTankScans
		MEAS_DATE=03-Apr-2023 14:10:04
		LINAC=L1 ELEKTA VERSA
		MODALITY=X
		ISOCENTER=1000.00
		INPLANE_AXIS=Inplane
		CROSSPLANE_AXIS=Crossplane
		DEPTH_AXIS=Depth
		INPLANE_AXIS_DIR=GUN_TARGET
		CROSSPLANE_AXIS_DIR=LEFT_RIGHT
		DEPTH_AXIS_DIR=UP_DOWN
		ENERGY=6.00
		NOMINAL_DMAX=16.00
		SSD=1000.00
		WEDGE_ANGLE=0.00
		FIELD_INPLANE=100.00
		FIELD_CROSSPLANE=100.00
		FIELD_TYPE=RECTANGULAR
		GANTRY=0.00
		GANTRY_UPRIGHT_POSITION=0
		GANTRY_ROTATION=CW
		COLL_ANGLE=0.00
		COLL_OFFSET_INPLANE=0.00
		COLL_OFFSET_CROSSPLANE=0.00
		SCAN_DEVICE=BeamScan
		SCAN_DEVICE_SETUP=BARA_LEFT_RIGHT
		ELECTROMETER=BeamScan
		RANGE_FIELD=LOW
		RANGE_REFERENCE=LOW
		DETECTOR=THIMBLE_CHAMBER
		DETECTOR_SUBCODE=SEMIFLEX
		DETECTOR_RADIUS=2.40
		DETECTOR_NAME=PTW Semiflex 3D (Field)
		DETECTOR_SN=141799
		DETECTOR_CALIBRATION=500000000.00
		DETECTOR_IS_CALIBRATED=1
		DETECTOR_REFERENCE=THIMBLE_CHAMBER
		DETECTOR_REFERENCE_SUBCODE=SEMIFLEX
		DETECTOR_REFERENCE_RADIUS=2.40
		DETECTOR_REFERENCE_NAME=PTW Semiflex 3D (REF)
		DETECTOR_REFERENCE_SN=141800
		DETECTOR_REFERENCE_IS_CALIBRATED=0
		DETECTOR_REFERENCE_CALIBRATION=500000000.00
		DETECTOR_HV=400.0
		DETECTOR_REFERENCE_HV=400.0
		DETECTOR_ORIENTATION=HORIZONTAL
		FILTER=FF
		SCAN_SPEED_PROFILE=0.00
		SCAN_PROF_SPEED_DEP=DEPTH
		SCAN_SPEED_PDD=5.00
		SCAN_PDD_SPEED_DEP=ENERGY
		REF_FIELD_DEPTH=0.00
		REF_FIELD_DEFINED=WATER_SURFACE
		REF_FIELD_INPLANE=100.00
		REF_FIELD_CROSSPLANE=100.00
		REF_SCAN_POSITIONS=0.00;1.00;2.00;3.00;4.00;5.00;6.00;7.00;8.00;9.00;10.00;11.00;12.00;13.00;14.00;15.00;16.00;17.00;18.00;19.00;20.00;21.00;22.00;23.00;24.00;25.00;26.00;27.00;28.00;29.00;30.00;31.00;32.00;33.00;34.00;35.00;36.00;37.00;38.00;39.00;40.00;41.00;42.00;43.00;44.00;45.00;46.00;47.00;48.00;49.00;50.00;51.00;52.00;53.00;54.00;55.00;56.00;57.00;58.00;59.00;60.00;61.00;62.00;63.00;64.00;65.00;66.00;67.00;68.00;69.00;70.00;71.00;72.00;73.00;74.00;75.00;76.00;77.00;78.00;79.00;80.00;81.00;82.00;83.00;84.00;85.00;86.00;87.00;88.00;89.00;90.00;91.00;92.00;93.00;94.00;95.00;96.00;97.00;98.00;99.00;100.00;101.00;102.00;103.00;104.00;105.00;106.00;107.00;108.00;109.00;110.00;111.00;112.00;113.00;114.00;115.00;116.00;117.00;118.00;119.00;120.00;121.00;122.00;123.00;124.00;125.00;126.00;127.00;128.00;129.00;130.00;131.00;132.00;133.00;134.00;135.00;136.00;137.00;138.00;139.00;140.00;141.00;142.00;143.00;144.00;145.00;146.00;147.00;148.00;149.00;150.00;151.00;152.00;153.00;154.00;155.00;156.00;157.00;158.00;159.00;160.00;161.00;162.00;163.00;164.00;165.00;166.00;167.00;168.00;169.00;170.00;171.00;172.00;173.00;174.00;175.00;176.00;177.00;178.00;179.00;180.00;181.00;182.00;183.00;184.00;185.00;186.00;187.00;188.00;189.00;190.00;191.00;192.00;193.00;194.00;195.00;196.00;197.00;198.00;199.00;200.00;201.00;202.00;203.00;204.00;205.00;206.00;207.00;208.00;209.00;210.00;211.00;212.00;213.00;214.00;215.00;216.00;217.00;218.00;219.00;220.00;221.00;222.00;223.00;224.00;225.00;226.00;227.00;228.00;229.00;230.00;231.00;232.00;233.00;234.00;235.00;236.00;237.00;238.00;239.00;240.00;241.00;242.00;243.00;244.00;245.00;246.00;247.00;248.00;249.00;250.00;251.00;252.00;253.00;254.00;255.00;256.00;257.00;258.00;259.00;260.00;261.00;262.00;263.00;264.00;265.00;266.00;267.00;268.00;269.00;270.00;271.00;272.00;273.00;274.00;275.00;276.00;277.00;278.00;279.00;280.00;281.00;282.00;283.00;284.00;285.00;286.00;287.00;288.00;289.00;290.00;291.00;292.00;293.00;294.00;295.00;296.00;297.00;298.00;299.00;300.00;
		SCAN_CURVETYPE=PDD
		SCAN_OFFAXIS_INPLANE=0.00
		SCAN_OFFAXIS_CROSSPLANE=0.00
		SCAN_ANGLE=0.00
		SCAN_DIAGONAL=NOT_DIAGONAL
		SCAN_DIRECTION=NEGATIVE
		MEAS_MEDIUM=WATER
		MEAS_PRESET=MEAS_CONTINUOUS_REFERENCE_SCAN
		MEAS_TIME=0.200
		MEAS_UNIT=A.U.
		INCLINATION_ANGLE=0.00
		PRESSURE=1013.25
		TEMPERATURE=20.00
		NORM_TEMPERATURE=20.00
		CORRECTION_FACTOR=1.0000
		EXPECTED_MAX_DOSE_RATE=3.00
		BEGIN_DATA
			0.00		521.11E-03		6.8220E+00
			1.00		552.56E-03		6.7920E+00
			2.00		596.13E-03		6.8190E+00
			3.00		689.37E-03		6.8280E+00
			4.00		779.74E-03		6.8100E+00
			5.00		844.05E-03		6.8100E+00
			6.00		903.74E-03		6.8250E+00
			7.00		937.94E-03		6.8160E+00
			8.00		977.58E-03		6.8250E+00
			9.00		988.11E-03		6.8100E+00
			10.00		1.0154E+00		6.8100E+00
			11.00		1.0206E+00		6.8310E+00
			12.00		1.0316E+00		6.8340E+00
			13.00		1.0402E+00		6.7950E+00
			14.00		1.0447E+00		6.7860E+00
			15.00		1.0461E+00		6.8310E+00
			16.00		1.0448E+00		6.8280E+00
			17.00		1.0441E+00		6.7980E+00
			18.00		1.0418E+00		6.8190E+00
			19.00		1.0400E+00		6.8310E+00
			20.00		1.0369E+00		6.8310E+00
			21.00		1.0321E+00		6.8130E+00
			22.00		1.0296E+00		6.7800E+00
			23.00		1.0255E+00		6.8280E+00
			24.00		1.0219E+00		6.8340E+00
			25.00		1.0176E+00		6.8220E+00
			26.00		1.0124E+00		6.7980E+00
			27.00		1.0097E+00		6.8070E+00
			28.00		1.0048E+00		6.8280E+00
			29.00		1.0009E+00		6.8250E+00
			30.00		996.48E-03		6.8100E+00
			31.00		993.83E-03		6.8100E+00
			32.00		986.77E-03		6.8040E+00
			33.00		983.74E-03		6.8280E+00
			34.00		978.85E-03		6.8070E+00
			35.00		976.62E-03		6.8010E+00
			36.00		971.79E-03		6.8070E+00
			37.00		966.14E-03		6.8220E+00
			38.00		960.74E-03		6.8010E+00
			39.00		956.71E-03		6.7920E+00
			40.00		953.01E-03		6.8310E+00
			41.00		950.26E-03		6.8160E+00
			42.00		945.91E-03		6.8220E+00
			43.00		939.93E-03		6.7920E+00
			44.00		935.41E-03		6.8280E+00
			45.00		929.76E-03		6.8340E+00
			46.00		927.94E-03		6.8280E+00
			47.00		923.01E-03		6.8190E+00
			48.00		917.73E-03		6.8190E+00
			49.00		913.88E-03		6.8280E+00
			50.00		909.49E-03		6.8280E+00
			51.00		905.48E-03		6.7920E+00
			52.00		901.72E-03		6.8070E+00
			53.00		897.23E-03		6.8310E+00
			54.00		893.28E-03		6.8310E+00
			55.00		888.99E-03		6.8100E+00
			56.00		884.28E-03		6.7920E+00
			57.00		879.67E-03		6.8310E+00
			58.00		874.89E-03		6.8340E+00
			59.00		872.14E-03		6.8280E+00
			60.00		866.90E-03		6.8070E+00
			61.00		863.42E-03		6.8310E+00
			62.00		858.08E-03		6.8280E+00
			63.00		855.45E-03		6.8280E+00
			64.00		851.04E-03		6.8070E+00
			65.00		847.17E-03		6.7920E+00
			66.00		842.84E-03		6.8340E+00
			67.00		840.44E-03		6.8250E+00
			68.00		834.14E-03		6.8190E+00
			69.00		830.68E-03		6.7860E+00
			70.00		824.69E-03		6.8280E+00
			71.00		822.78E-03		6.8220E+00
			72.00		818.10E-03		6.8280E+00
			73.00		814.24E-03		6.7830E+00
			74.00		810.74E-03		6.8160E+00
			75.00		805.63E-03		6.8220E+00
			76.00		800.70E-03		6.8340E+00
			77.00		797.88E-03		6.7980E+00
			78.00		793.57E-03		6.8160E+00
			79.00		790.24E-03		6.8220E+00
			80.00		786.12E-03		6.8310E+00
			81.00		781.59E-03		6.8130E+00
			82.00		779.20E-03		6.8070E+00
			83.00		773.53E-03		6.8220E+00
			84.00		770.35E-03		6.8190E+00
			85.00		765.07E-03		6.8190E+00
			86.00		762.24E-03		6.8010E+00
			87.00		759.14E-03		6.8130E+00
			88.00		753.96E-03		6.8160E+00
			89.00		751.43E-03		6.8190E+00
			90.00		747.68E-03		6.7890E+00
			91.00		743.07E-03		6.8190E+00
			92.00		740.09E-03		6.8100E+00
			93.00		736.70E-03		6.8250E+00
			94.00		731.04E-03		6.8040E+00
			95.00		729.16E-03		6.8010E+00
			96.00		724.15E-03		6.8190E+00
			97.00		719.44E-03		6.8220E+00
			98.00		716.62E-03		6.7860E+00
			99.00		714.79E-03		6.7740E+00
			100.00		709.63E-03		6.8190E+00
			101.00		704.93E-03		6.8220E+00
			102.00		702.07E-03		6.8070E+00
			103.00		697.88E-03		6.7920E+00
			104.00		694.27E-03		6.8100E+00
			105.00		692.07E-03		6.8100E+00
			106.00		688.38E-03		6.8160E+00
			107.00		683.47E-03		6.7860E+00
			108.00		681.06E-03		6.8100E+00
			109.00		675.46E-03		6.8220E+00
			110.00		673.42E-03		6.8070E+00
			111.00		670.35E-03		6.7800E+00
			112.00		667.25E-03		6.8070E+00
			113.00		663.44E-03		6.8100E+00
			114.00		659.62E-03		6.8130E+00
			115.00		656.82E-03		6.8010E+00
			116.00		651.81E-03		6.7980E+00
			117.00		648.90E-03		6.8100E+00
			118.00		647.27E-03		6.8040E+00
			119.00		642.26E-03		6.8010E+00
			120.00		639.10E-03		6.7830E+00
			121.00		635.96E-03		6.8070E+00
			122.00		631.72E-03		6.8100E+00
			123.00		629.12E-03		6.8190E+00
			124.00		625.83E-03		6.7830E+00
			125.00		621.42E-03		6.8070E+00
			126.00		619.49E-03		6.8040E+00
			127.00		615.69E-03		6.8070E+00
			128.00		612.29E-03		6.7860E+00
			129.00		609.62E-03		6.8010E+00
			130.00		606.09E-03		6.8010E+00
			131.00		603.08E-03		6.8100E+00
			132.00		599.03E-03		6.7860E+00
			133.00		597.00E-03		6.8040E+00
			134.00		592.23E-03		6.7980E+00
			135.00		589.43E-03		6.8100E+00
			136.00		586.68E-03		6.8010E+00
			137.00		584.73E-03		6.7980E+00
			138.00		581.02E-03		6.7950E+00
			139.00		578.37E-03		6.7950E+00
			140.00		574.08E-03		6.7830E+00
			141.00		572.82E-03		6.7980E+00
			142.00		569.92E-03		6.8010E+00
			143.00		565.01E-03		6.8070E+00
			144.00		561.20E-03		6.7890E+00
			145.00		559.08E-03		6.8040E+00
			146.00		556.00E-03		6.8040E+00
			147.00		553.55E-03		6.8070E+00
			148.00		550.51E-03		6.8010E+00
			149.00		548.79E-03		6.7950E+00
			150.00		543.69E-03		6.7980E+00
			151.00		540.36E-03		6.8010E+00
			152.00		538.60E-03		6.8010E+00
			153.00		536.28E-03		6.7800E+00
			154.00		533.51E-03		6.8040E+00
			155.00		531.31E-03		6.8040E+00
			156.00		527.20E-03		6.7830E+00
			157.00		525.24E-03		6.7740E+00
			158.00		522.51E-03		6.7980E+00
			159.00		519.19E-03		6.8010E+00
			160.00		516.10E-03		6.8010E+00
			161.00		513.02E-03		6.7950E+00
			162.00		511.26E-03		6.7950E+00
			163.00		509.05E-03		6.7950E+00
			164.00		505.52E-03		6.7950E+00
			165.00		501.99E-03		6.7710E+00
			166.00		500.66E-03		6.8010E+00
			167.00		496.91E-03		6.8040E+00
			168.00		494.04E-03		6.8010E+00
			169.00		491.79E-03		6.7590E+00
			170.00		489.62E-03		6.7950E+00
			171.00		485.85E-03		6.7860E+00
			172.00		484.57E-03		6.8040E+00
			173.00		481.42E-03		6.7800E+00
			174.00		478.74E-03		6.7740E+00
			175.00		475.52E-03		6.8010E+00
			176.00		473.29E-03		6.7950E+00
			177.00		471.45E-03		6.7770E+00
			178.00		468.35E-03		6.7770E+00
			179.00		466.05E-03		6.8040E+00
			180.00		463.78E-03		6.7920E+00
			181.00		462.15E-03		6.7770E+00
			182.00		458.89E-03		6.7860E+00
			183.00		456.11E-03		6.8010E+00
			184.00		453.42E-03		6.7950E+00
			185.00		452.45E-03		6.7830E+00
			186.00		450.00E-03		6.7800E+00
			187.00		445.57E-03		6.8070E+00
			188.00		443.12E-03		6.8040E+00
			189.00		441.41E-03		6.7890E+00
			190.00		440.06E-03		6.7620E+00
			191.00		437.27E-03		6.8010E+00
			192.00		434.89E-03		6.7920E+00
			193.00		431.49E-03		6.7830E+00
			194.00		430.50E-03		6.7770E+00
			195.00		427.97E-03		6.7890E+00
			196.00		424.90E-03		6.7950E+00
			197.00		422.44E-03		6.7920E+00
			198.00		421.67E-03		6.7560E+00
			199.00		418.14E-03		6.7980E+00
			200.00		416.99E-03		6.7980E+00
			201.00		413.18E-03		6.7830E+00
			202.00		412.70E-03		6.7770E+00
			203.00		409.93E-03		6.7950E+00
			204.00		407.51E-03		6.7920E+00
			205.00		405.23E-03		6.7710E+00
			206.00		403.59E-03		6.7740E+00
			207.00		401.37E-03		6.7950E+00
			208.00		398.81E-03		6.7920E+00
			209.00		396.68E-03		6.7770E+00
			210.00		395.62E-03		6.7800E+00
			211.00		392.41E-03		6.7980E+00
			212.00		390.50E-03		6.7920E+00
			213.00		388.75E-03		6.7980E+00
			214.00		386.16E-03		6.7650E+00
			215.00		383.69E-03		6.7890E+00
			216.00		382.32E-03		6.7890E+00
			217.00		379.85E-03		6.7890E+00
			218.00		378.48E-03		6.7890E+00
			219.00		375.77E-03		6.7980E+00
			220.00		373.74E-03		6.7860E+00
			221.00		371.84E-03		6.7860E+00
			222.00		369.77E-03		6.7770E+00
			223.00		367.81E-03		6.7950E+00
			224.00		365.40E-03		6.7980E+00
			225.00		364.22E-03		6.7920E+00
			226.00		362.95E-03		6.7770E+00
			227.00		360.06E-03		6.7980E+00
			228.00		358.82E-03		6.7830E+00
			229.00		356.74E-03		6.7890E+00
			230.00		354.48E-03		6.7560E+00
			231.00		353.32E-03		6.7800E+00
			232.00		350.49E-03		6.7980E+00
			233.00		348.74E-03		6.7890E+00
			234.00		347.50E-03		6.7770E+00
			235.00		344.98E-03		6.7890E+00
			236.00		342.84E-03		6.7710E+00
			237.00		340.95E-03		6.7920E+00
			238.00		339.23E-03		6.7830E+00
			239.00		337.47E-03		6.7890E+00
			240.00		334.92E-03		6.7860E+00
			241.00		333.64E-03		6.7860E+00
			242.00		332.24E-03		6.7650E+00
			243.00		330.71E-03		6.7800E+00
			244.00		329.51E-03		6.7800E+00
			245.00		327.23E-03		6.7860E+00
			246.00		324.78E-03		6.7680E+00
			247.00		324.23E-03		6.7860E+00
			248.00		321.88E-03		6.7860E+00
			249.00		319.94E-03		6.7860E+00
			250.00		319.08E-03		6.7620E+00
			251.00		317.01E-03		6.7740E+00
			252.00		315.45E-03		6.7770E+00
			253.00		312.92E-03		6.7800E+00
			254.00		312.13E-03		6.7530E+00
			255.00		311.07E-03		6.7770E+00
			256.00		309.09E-03		6.7680E+00
			257.00		306.59E-03		6.7860E+00
			258.00		304.78E-03		6.7740E+00
			259.00		304.83E-03		6.7710E+00
			260.00		302.35E-03		6.7770E+00
			261.00		299.96E-03		6.7710E+00
			262.00		298.36E-03		6.7530E+00
			263.00		296.95E-03		6.7770E+00
			264.00		295.45E-03		6.7860E+00
			265.00		293.63E-03		6.7800E+00
			266.00		292.87E-03		6.7350E+00
			267.00		291.42E-03		6.7500E+00
			268.00		289.73E-03		6.7770E+00
			269.00		286.69E-03		6.7830E+00
			270.00		286.88E-03		6.7680E+00
			271.00		285.31E-03		6.7620E+00
			272.00		284.18E-03		6.7710E+00
			273.00		281.64E-03		6.7650E+00
			274.00		280.20E-03		6.7410E+00
			275.00		279.61E-03		6.7680E+00
			276.00		277.66E-03		6.7680E+00
			277.00		276.56E-03		6.7710E+00
			278.00		274.53E-03		6.7620E+00
			279.00		272.42E-03		6.7650E+00
			280.00		270.95E-03		6.7650E+00
			281.00		270.11E-03		6.7650E+00
			282.00		268.49E-03		6.7500E+00
			283.00		267.67E-03		6.7650E+00
			284.00		265.81E-03		6.7560E+00
			285.00		264.00E-03		6.7590E+00
			286.00		263.43E-03		6.7680E+00
			287.00		262.40E-03		6.7500E+00
			288.00		260.17E-03		6.7710E+00
			289.00		258.27E-03		6.7500E+00
			290.00		258.31E-03		6.7500E+00
			291.00		255.80E-03		6.7740E+00
			292.00		254.95E-03		6.7530E+00
			293.00		253.65E-03		6.7380E+00
			294.00		252.69E-03		6.7590E+00
			295.00		250.44E-03		6.7680E+00
			296.00		248.87E-03		6.7710E+00
			297.00		248.45E-03		6.7620E+00
			298.00		246.27E-03		6.7620E+00
			299.00		245.58E-03		6.7590E+00
		END_DATA
	END_SCAN  1
END_SCAN_DATA
