BEGIN_SCAN_DATA
	FORMAT=CC-Export V1.9                  
	FILE_CREATION_DATE=12-Oct-2022 11:55:46
	LAST_MODIFIED=12-Oct-2022 11:55:46
	BEGIN_SCAN  1
		TASK_NAME=tba PDD Profiles
		PROGRAM=WaterTankScans
		MEAS_DATE=12-Oct-2022 11:54:31
		LINAC=L2 ELEKTA VERSA
		MODALITY=X
		ISOCENTER=1000.00
		INPLANE_AXIS=Inplane
		CROSSPLANE_AXIS=Crossplane
		DEPTH_AXIS=Depth
		INPLANE_AXIS_DIR=GUN_TARGET
		CROSSPLANE_AXIS_DIR=LEFT_RIGHT
		DEPTH_AXIS_DIR=UP_DOWN
		ENERGY=6.00
		NOMINAL_DMAX=16.00
		SSD=1000.00
		BLOCK=0
		WEDGE_ANGLE=0.00
		FIELD_INPLANE=100.00
		FIELD_CROSSPLANE=100.00
		FIELD_TYPE=RECTANGULAR
		GANTRY=0.00
		GANTRY_UPRIGHT_POSITION=0
		GANTRY_ROTATION=CW
		COLL_ANGLE=0.00
		COLL_OFFSET_INPLANE=0.00
		COLL_OFFSET_CROSSPLANE=0.00
		SCAN_DEVICE=BeamScan
		SCAN_DEVICE_SETUP=BARA_LEFT_RIGHT
		ELECTROMETER=BeamScan
		RANGE_FIELD=LOW
		RANGE_REFERENCE=LOW
		DETECTOR=THIMBLE_CHAMBER
		DETECTOR_SUBCODE=SEMIFLEX
		DETECTOR_RADIUS=2.40
		DETECTOR_NAME=PTW Semiflex 3D (Field)
		DETECTOR_SN=141799
		DETECTOR_CALIBRATION=500000000.00
		DETECTOR_IS_CALIBRATED=1
		DETECTOR_REFERENCE=THIMBLE_CHAMBER
		DETECTOR_REFERENCE_SUBCODE=SEMIFLEX
		DETECTOR_REFERENCE_RADIUS=2.40
		DETECTOR_REFERENCE_NAME=PTW Semiflex 3D (REF)
		DETECTOR_REFERENCE_SN=141800
		DETECTOR_REFERENCE_IS_CALIBRATED=0
		DETECTOR_REFERENCE_CALIBRATION=500000000.00
		DETECTOR_HV=400.0
		DETECTOR_REFERENCE_HV=400.0
		DETECTOR_ORIENTATION=HORIZONTAL
		FILTER=WFF
		SCAN_SPEED_PROFILE=0.00
		SCAN_PROF_SPEED_DEP=DEPTH
		SCAN_SPEED_PDD=5.00
		SCAN_PDD_SPEED_DEP=ENERGY
		REF_FIELD_DEPTH=0.00
		REF_FIELD_DEFINED=WATER_SURFACE
		REF_FIELD_INPLANE=100.00
		REF_FIELD_CROSSPLANE=100.00
		REF_SCAN_POSITIONS=0.00;1.00;2.00;3.00;4.00;5.00;6.00;7.00;8.00;9.00;10.00;11.00;12.00;13.00;14.00;15.00;16.00;17.00;18.00;19.00;20.00;21.00;22.00;23.00;24.00;25.00;26.00;27.00;28.00;29.00;30.00;31.00;32.00;33.00;34.00;35.00;36.00;37.00;38.00;39.00;40.00;41.00;42.00;43.00;44.00;45.00;46.00;47.00;48.00;49.00;50.00;51.00;52.00;53.00;54.00;55.00;56.00;57.00;58.00;59.00;60.00;61.00;62.00;63.00;64.00;65.00;66.00;67.00;68.00;69.00;70.00;71.00;72.00;73.00;74.00;75.00;76.00;77.00;78.00;79.00;80.00;81.00;82.00;83.00;84.00;85.00;86.00;87.00;88.00;89.00;90.00;91.00;92.00;93.00;94.00;95.00;96.00;97.00;98.00;99.00;100.00;101.00;102.00;103.00;104.00;105.00;106.00;107.00;108.00;109.00;110.00;111.00;112.00;113.00;114.00;115.00;116.00;117.00;118.00;119.00;120.00;121.00;122.00;123.00;124.00;125.00;126.00;127.00;128.00;129.00;130.00;131.00;132.00;133.00;134.00;135.00;136.00;137.00;138.00;139.00;140.00;141.00;142.00;143.00;144.00;145.00;146.00;147.00;148.00;149.00;150.00;151.00;152.00;153.00;154.00;155.00;156.00;157.00;158.00;159.00;160.00;161.00;162.00;163.00;164.00;165.00;166.00;167.00;168.00;169.00;170.00;171.00;172.00;173.00;174.00;175.00;176.00;177.00;178.00;179.00;180.00;181.00;182.00;183.00;184.00;185.00;186.00;187.00;188.00;189.00;190.00;191.00;192.00;193.00;194.00;195.00;196.00;197.00;198.00;199.00;200.00;201.00;202.00;203.00;204.00;205.00;206.00;207.00;208.00;209.00;210.00;211.00;212.00;213.00;214.00;215.00;216.00;217.00;218.00;219.00;220.00;221.00;222.00;223.00;224.00;225.00;226.00;227.00;228.00;229.00;230.00;231.00;232.00;233.00;234.00;235.00;236.00;237.00;238.00;239.00;240.00;241.00;242.00;243.00;244.00;245.00;246.00;247.00;248.00;249.00;250.00;251.00;252.00;253.00;254.00;255.00;256.00;257.00;258.00;259.00;260.00;261.00;262.00;263.00;264.00;265.00;266.00;267.00;268.00;269.00;270.00;271.00;272.00;273.00;274.00;275.00;276.00;277.00;278.00;279.00;280.00;281.00;282.00;283.00;284.00;285.00;286.00;287.00;288.00;289.00;290.00;291.00;292.00;293.00;294.00;295.00;296.00;297.00;298.00;299.00;300.00;
		SCAN_CURVETYPE=PDD
		SCAN_OFFAXIS_INPLANE=0.00
		SCAN_OFFAXIS_CROSSPLANE=0.00
		SCAN_ANGLE=0.00
		SCAN_DIAGONAL=NOT_DIAGONAL
		SCAN_DIRECTION=NEGATIVE
		MEAS_MEDIUM=WATER
		MEAS_PRESET=MEAS_CONTINUOUS_REFERENCE_SCAN
		MEAS_TIME=0.200
		MEAS_UNIT=A.U.
		PRESSURE=1013.25
		TEMPERATURE=20.00
		NORM_TEMPERATURE=20.00
		CORRECTION_FACTOR=1.0000
		EXPECTED_MAX_DOSE_RATE=3.00
		BEGIN_DATA
			0.00		760.95E-03		2.7408E+00
			1.00		838.87E-03		2.7351E+00
			2.00		951.23E-03		2.7312E+00
			3.00		1.1011E+00		2.7327E+00
			4.00		1.2119E+00		2.7330E+00
			5.00		1.3009E+00		2.7327E+00
			6.00		1.3667E+00		2.7285E+00
			7.00		1.4124E+00		2.7378E+00
			8.00		1.4488E+00		2.7354E+00
			9.00		1.4751E+00		2.7333E+00
			10.00		1.4994E+00		2.7351E+00
			11.00		1.5099E+00		2.7339E+00
			12.00		1.5231E+00		2.7300E+00
			13.00		1.5248E+00		2.7270E+00
			14.00		1.5325E+00		2.7348E+00
			15.00		1.5328E+00		2.7303E+00
			16.00		1.5319E+00		2.7339E+00
			17.00		1.5293E+00		2.7306E+00
			18.00		1.5255E+00		2.7315E+00
			19.00		1.5234E+00		2.7294E+00
			20.00		1.5147E+00		2.7333E+00
			21.00		1.5138E+00		2.7309E+00
			22.00		1.5080E+00		2.7315E+00
			23.00		1.4994E+00		2.7270E+00
			24.00		1.4966E+00		2.7282E+00
			25.00		1.4882E+00		2.7375E+00
			26.00		1.4793E+00		2.7276E+00
			27.00		1.4718E+00		2.7294E+00
			28.00		1.4693E+00		2.7360E+00
			29.00		1.4594E+00		2.7381E+00
			30.00		1.4548E+00		2.7303E+00
			31.00		1.4438E+00		2.7303E+00
			32.00		1.4435E+00		2.7351E+00
			33.00		1.4378E+00		2.7354E+00
			34.00		1.4301E+00		2.7270E+00
			35.00		1.4214E+00		2.7333E+00
			36.00		1.4185E+00		2.7282E+00
			37.00		1.4096E+00		2.7327E+00
			38.00		1.4032E+00		2.7324E+00
			39.00		1.3960E+00		2.7399E+00
			40.00		1.3916E+00		2.7270E+00
			41.00		1.3856E+00		2.7345E+00
			42.00		1.3786E+00		2.7201E+00
			43.00		1.3730E+00		2.7312E+00
			44.00		1.3697E+00		2.7312E+00
			45.00		1.3620E+00		2.7291E+00
			46.00		1.3514E+00		2.7282E+00
			47.00		1.3445E+00		2.7378E+00
			48.00		1.3396E+00		2.7366E+00
			49.00		1.3362E+00		2.7189E+00
			50.00		1.3290E+00		2.7336E+00
			51.00		1.3198E+00		2.7276E+00
			52.00		1.3160E+00		2.7288E+00
			53.00		1.3081E+00		2.7291E+00
			54.00		1.3008E+00		2.7306E+00
			55.00		1.2959E+00		2.7270E+00
			56.00		1.2915E+00		2.7318E+00
			57.00		1.2840E+00		2.7336E+00
			58.00		1.2793E+00		2.7273E+00
			59.00		1.2710E+00		2.7309E+00
			60.00		1.2651E+00		2.7270E+00
			61.00		1.2595E+00		2.7345E+00
			62.00		1.2523E+00		2.7285E+00
			63.00		1.2492E+00		2.7258E+00
			64.00		1.2409E+00		2.7318E+00
			65.00		1.2356E+00		2.7291E+00
			66.00		1.2291E+00		2.7288E+00
			67.00		1.2217E+00		2.7258E+00
			68.00		1.2146E+00		2.7294E+00
			69.00		1.2110E+00		2.7324E+00
			70.00		1.2022E+00		2.7276E+00
			71.00		1.1963E+00		2.7285E+00
			72.00		1.1920E+00		2.7333E+00
			73.00		1.1854E+00		2.7333E+00
			74.00		1.1780E+00		2.7225E+00
			75.00		1.1764E+00		2.7312E+00
			76.00		1.1679E+00		2.7357E+00
			77.00		1.1603E+00		2.7225E+00
			78.00		1.1541E+00		2.7243E+00
			79.00		1.1481E+00		2.7333E+00
			80.00		1.1454E+00		2.7318E+00
			81.00		1.1417E+00		2.7249E+00
			82.00		1.1326E+00		2.7282E+00
			83.00		1.1266E+00		2.7294E+00
			84.00		1.1227E+00		2.7309E+00
			85.00		1.1162E+00		2.7279E+00
			86.00		1.1099E+00		2.7300E+00
			87.00		1.1035E+00		2.7294E+00
			88.00		1.0979E+00		2.7351E+00
			89.00		1.0928E+00		2.7336E+00
			90.00		1.0891E+00		2.7207E+00
			91.00		1.0833E+00		2.7306E+00
			92.00		1.0768E+00		2.7276E+00
			93.00		1.0734E+00		2.7180E+00
			94.00		1.0676E+00		2.7261E+00
			95.00		1.0611E+00		2.7288E+00
			96.00		1.0548E+00		2.7282E+00
			97.00		1.0495E+00		2.7294E+00
			98.00		1.0409E+00		2.7288E+00
			99.00		1.0370E+00		2.7267E+00
			100.00		1.0324E+00		2.7303E+00
			101.00		1.0273E+00		2.7219E+00
			102.00		1.0216E+00		2.7258E+00
			103.00		1.0148E+00		2.7321E+00
			104.00		1.0119E+00		2.7258E+00
			105.00		1.0062E+00		2.7291E+00
			106.00		999.89E-03		2.7174E+00
			107.00		996.15E-03		2.7273E+00
			108.00		989.15E-03		2.7372E+00
			109.00		984.19E-03		2.7330E+00
			110.00		981.96E-03		2.7267E+00
			111.00		973.99E-03		2.7219E+00
			112.00		970.50E-03		2.7258E+00
			113.00		963.72E-03		2.7288E+00
			114.00		961.02E-03		2.7243E+00
			115.00		955.79E-03		2.7279E+00
			116.00		950.16E-03		2.7267E+00
			117.00		945.42E-03		2.7210E+00
			118.00		940.00E-03		2.7201E+00
			119.00		936.27E-03		2.7210E+00
			120.00		930.88E-03		2.7213E+00
			121.00		925.04E-03		2.7216E+00
			122.00		920.88E-03		2.7264E+00
			123.00		914.47E-03		2.7255E+00
			124.00		910.75E-03		2.7192E+00
			125.00		907.08E-03		2.7249E+00
			126.00		899.01E-03		2.7240E+00
			127.00		893.93E-03		2.7264E+00
			128.00		891.50E-03		2.7180E+00
			129.00		886.40E-03		2.7201E+00
			130.00		882.44E-03		2.7204E+00
			131.00		875.69E-03		2.7342E+00
			132.00		870.81E-03		2.7216E+00
			133.00		866.19E-03		2.7240E+00
			134.00		862.82E-03		2.7336E+00
			135.00		859.22E-03		2.7171E+00
			136.00		854.72E-03		2.7216E+00
			137.00		851.02E-03		2.7285E+00
			138.00		844.56E-03		2.7213E+00
			139.00		840.30E-03		2.7144E+00
			140.00		834.54E-03		2.7270E+00
			141.00		832.82E-03		2.7240E+00
			142.00		825.83E-03		2.7180E+00
			143.00		822.43E-03		2.7201E+00
			144.00		814.63E-03		2.7270E+00
			145.00		812.00E-03		2.7240E+00
			146.00		809.35E-03		2.7207E+00
			147.00		806.42E-03		2.7213E+00
			148.00		800.42E-03		2.7297E+00
			149.00		795.51E-03		2.7141E+00
			150.00		792.72E-03		2.7180E+00
			151.00		786.01E-03		2.7282E+00
			152.00		782.07E-03		2.7201E+00
			153.00		779.52E-03		2.7159E+00
			154.00		775.89E-03		2.7255E+00
			155.00		769.28E-03		2.7189E+00
			156.00		765.70E-03		2.7183E+00
			157.00		761.05E-03		2.7219E+00
			158.00		758.16E-03		2.7204E+00
			159.00		752.12E-03		2.7219E+00
			160.00		749.53E-03		2.7225E+00
			161.00		746.64E-03		2.7210E+00
			162.00		741.85E-03		2.7228E+00
			163.00		737.53E-03		2.7249E+00
			164.00		735.20E-03		2.7168E+00
			165.00		730.57E-03		2.7135E+00
			166.00		726.14E-03		2.7255E+00
			167.00		722.72E-03		2.7189E+00
			168.00		720.63E-03		2.7168E+00
			169.00		714.52E-03		2.7186E+00
			170.00		710.85E-03		2.7183E+00
			171.00		707.72E-03		2.7138E+00
			172.00		703.39E-03		2.7147E+00
			173.00		701.20E-03		2.7159E+00
			174.00		696.41E-03		2.7165E+00
			175.00		692.21E-03		2.7135E+00
			176.00		689.05E-03		2.7159E+00
			177.00		683.99E-03		2.7132E+00
			178.00		682.18E-03		2.7195E+00
			179.00		676.79E-03		2.7177E+00
			180.00		674.32E-03		2.7192E+00
			181.00		670.36E-03		2.7075E+00
			182.00		667.37E-03		2.7147E+00
			183.00		662.46E-03		2.7126E+00
			184.00		660.62E-03		2.7129E+00
			185.00		655.81E-03		2.7177E+00
			186.00		652.18E-03		2.7126E+00
			187.00		648.44E-03		2.7162E+00
			188.00		645.71E-03		2.7147E+00
			189.00		640.17E-03		2.7171E+00
			190.00		639.03E-03		2.7102E+00
			191.00		634.29E-03		2.7210E+00
			192.00		631.69E-03		2.7132E+00
			193.00		625.99E-03		2.7144E+00
			194.00		622.84E-03		2.7132E+00
			195.00		621.89E-03		2.7159E+00
			196.00		617.78E-03		2.7165E+00
			197.00		614.30E-03		2.7153E+00
			198.00		611.30E-03		2.7198E+00
			199.00		606.42E-03		2.7090E+00
			200.00		604.86E-03		2.7150E+00
			201.00		601.13E-03		2.7129E+00
			202.00		599.40E-03		2.7147E+00
			203.00		595.46E-03		2.7090E+00
			204.00		592.11E-03		2.7147E+00
			205.00		589.18E-03		2.7114E+00
			206.00		585.84E-03		2.7069E+00
			207.00		582.13E-03		2.7123E+00
			208.00		580.02E-03		2.7123E+00
			209.00		577.59E-03		2.7123E+00
			210.00		571.74E-03		2.7096E+00
			211.00		568.87E-03		2.7117E+00
			212.00		566.67E-03		2.7132E+00
			213.00		564.05E-03		2.7072E+00
			214.00		560.31E-03		2.7060E+00
			215.00		556.46E-03		2.7150E+00
			216.00		554.68E-03		2.7183E+00
			217.00		550.04E-03		2.7069E+00
			218.00		549.06E-03		2.7057E+00
			219.00		545.35E-03		2.7054E+00
			220.00		542.29E-03		2.7063E+00
			221.00		539.21E-03		2.7123E+00
			222.00		534.93E-03		2.7099E+00
			223.00		533.47E-03		2.7117E+00
			224.00		530.10E-03		2.7057E+00
			225.00		526.83E-03		2.7117E+00
			226.00		524.71E-03		2.7072E+00
			227.00		522.41E-03		2.7111E+00
			228.00		520.94E-03		2.7078E+00
			229.00		517.10E-03		2.7105E+00
			230.00		513.52E-03		2.7078E+00
			231.00		510.34E-03		2.7123E+00
			232.00		507.58E-03		2.7123E+00
			233.00		505.71E-03		2.7063E+00
			234.00		501.94E-03		2.7093E+00
			235.00		500.78E-03		2.7090E+00
			236.00		498.34E-03		2.7090E+00
			237.00		494.18E-03		2.7075E+00
			238.00		492.52E-03		2.7081E+00
			239.00		490.07E-03		2.7033E+00
			240.00		486.96E-03		2.7039E+00
			241.00		484.74E-03		2.6934E+00
			242.00		480.84E-03		2.7003E+00
			243.00		479.83E-03		2.7066E+00
			244.00		476.36E-03		2.7093E+00
			245.00		473.04E-03		2.7042E+00
			246.00		471.43E-03		2.6937E+00
			247.00		469.62E-03		2.7054E+00
			248.00		465.18E-03		2.7054E+00
			249.00		463.54E-03		2.7027E+00
			250.00		460.93E-03		2.7069E+00
			251.00		459.00E-03		2.7039E+00
			252.00		455.85E-03		2.7042E+00
			253.00		454.34E-03		2.7072E+00
			254.00		451.92E-03		2.6985E+00
			255.00		448.73E-03		2.7090E+00
			256.00		446.08E-03		2.6982E+00
			257.00		443.28E-03		2.7003E+00
			258.00		441.92E-03		2.7066E+00
			259.00		439.77E-03		2.7021E+00
			260.00		437.08E-03		2.7036E+00
			261.00		436.29E-03		2.7030E+00
			262.00		432.99E-03		2.6973E+00
			263.00		428.62E-03		2.7024E+00
			264.00		429.03E-03		2.6991E+00
			265.00		426.37E-03		2.7012E+00
			266.00		424.71E-03		2.6955E+00
			267.00		422.38E-03		2.6997E+00
			268.00		419.57E-03		2.7006E+00
			269.00		416.99E-03		2.6979E+00
			270.00		414.87E-03		2.7030E+00
			271.00		412.99E-03		2.6928E+00
			272.00		409.99E-03		2.6979E+00
			273.00		409.33E-03		2.6934E+00
			274.00		406.37E-03		2.7012E+00
			275.00		404.09E-03		2.6964E+00
			276.00		401.87E-03		2.6934E+00
			277.00		399.56E-03		2.6985E+00
			278.00		399.11E-03		2.6985E+00
			279.00		395.50E-03		2.6928E+00
			280.00		392.83E-03		2.6943E+00
			281.00		391.37E-03		2.6967E+00
			282.00		389.33E-03		2.6985E+00
			283.00		386.98E-03		2.6955E+00
			284.00		384.91E-03		2.6874E+00
			285.00		383.16E-03		2.6973E+00
			286.00		381.57E-03		2.6952E+00
			287.00		377.82E-03		2.6997E+00
			288.00		376.21E-03		2.6961E+00
			289.00		374.08E-03		2.6946E+00
			290.00		371.26E-03		2.6949E+00
			291.00		371.03E-03		2.6982E+00
			292.00		368.75E-03		2.6994E+00
			293.00		364.47E-03		2.6850E+00
			294.00		365.33E-03		2.6943E+00
			295.00		362.88E-03		2.6976E+00
			296.00		360.93E-03		2.6955E+00
			297.00		358.39E-03		2.6904E+00
			298.00		356.80E-03		2.6973E+00
			299.00		355.61E-03		2.6895E+00
			300.00		352.52E-03		2.6943E+00
		END_DATA
	END_SCAN  1
END_SCAN_DATA
