BEGIN_SCAN_DATA
	FORMAT=CC-Export V1.9                  
	FILE_CREATION_DATE=17-Aug-2022 18:08:59
	LAST_MODIFIED=17-Aug-2022 18:08:59
	BEGIN_SCAN  1
		TASK_NAME=tba PDD Profiles
		PROGRAM=WaterTankScans
		MEAS_DATE=17-Aug-2022 18:07:43
		LINAC=L3 ELEKTA SYNERGY
		MODALITY=X
		ISOCENTER=1000.00
		INPLANE_AXIS=Inplane
		CROSSPLANE_AXIS=Crossplane
		DEPTH_AXIS=Depth
		INPLANE_AXIS_DIR=GUN_TARGET
		CROSSPLANE_AXIS_DIR=LEFT_RIGHT
		DEPTH_AXIS_DIR=UP_DOWN
		ENERGY=6.00
		NOMINAL_DMAX=15.00
		SSD=1000.00
		SCD=450.00
		BLOCK=0
		WEDGE_ANGLE=0.00
		FIELD_INPLANE=100.00
		FIELD_CROSSPLANE=100.00
		FIELD_TYPE=RECTANGULAR
		GANTRY=0.00
		GANTRY_UPRIGHT_POSITION=0
		GANTRY_ROTATION=CW
		COLL_ANGLE=0.00
		COLL_OFFSET_INPLANE=0.00
		COLL_OFFSET_CROSSPLANE=0.00
		SCAN_DEVICE=BeamScan
		SCAN_DEVICE_SETUP=BARA_LEFT_RIGHT
		ELECTROMETER=BeamScan
		RANGE_FIELD=LOW
		RANGE_REFERENCE=LOW
		DETECTOR=THIMBLE_CHAMBER
		DETECTOR_SUBCODE=SEMIFLEX
		DETECTOR_RADIUS=2.40
		DETECTOR_NAME=PTW Demo Semiflex 3D
		DETECTOR_SN=Demo
		DETECTOR_CALIBRATION=500000000.00
		DETECTOR_IS_CALIBRATED=1
		DETECTOR_REFERENCE=THIMBLE_CHAMBER
		DETECTOR_REFERENCE_SUBCODE=SEMIFLEX
		DETECTOR_REFERENCE_RADIUS=2.40
		DETECTOR_REFERENCE_NAME=PTW Demo Semiflex 3D
		DETECTOR_REFERENCE_SN=Demo
		DETECTOR_REFERENCE_IS_CALIBRATED=1
		DETECTOR_REFERENCE_CALIBRATION=500000000.00
		DETECTOR_HV=400.0
		DETECTOR_REFERENCE_HV=400.0
		DETECTOR_ORIENTATION=HORIZONTAL
		FILTER=FF
		SCAN_SPEED_PROFILE=10.00
		SCAN_PROF_SPEED_DEP=NONE
		SCAN_SPEED_PDD=10.00
		SCAN_PDD_SPEED_DEP=NONE
		REF_FIELD_DEPTH=0.00
		REF_FIELD_DEFINED=ISOCENTER
		REF_FIELD_INPLANE=100.00
		REF_FIELD_CROSSPLANE=100.00
		REF_SCAN_POSITIONS=0.00;1.00;2.00;3.00;4.00;5.00;6.00;7.00;8.00;9.00;10.00;11.00;12.00;13.00;14.00;15.00;16.00;17.00;18.00;19.00;20.00;21.00;22.00;23.00;24.00;25.00;26.00;27.00;28.00;29.00;30.00;31.00;32.00;33.00;34.00;35.00;36.00;37.00;38.00;39.00;40.00;41.00;42.00;43.00;44.00;45.00;46.00;47.00;48.00;49.00;50.00;51.00;52.00;53.00;54.00;55.00;56.00;57.00;58.00;59.00;60.00;61.00;62.00;63.00;64.00;65.00;66.00;67.00;68.00;69.00;70.00;71.00;72.00;73.00;74.00;75.00;76.00;77.00;78.00;79.00;80.00;81.00;82.00;83.00;84.00;85.00;86.00;87.00;88.00;89.00;90.00;91.00;92.00;93.00;94.00;95.00;96.00;97.00;98.00;99.00;100.00;101.00;102.00;103.00;104.00;105.00;106.00;107.00;108.00;109.00;110.00;111.00;112.00;113.00;114.00;115.00;116.00;117.00;118.00;119.00;120.00;121.00;122.00;123.00;124.00;125.00;126.00;127.00;128.00;129.00;130.00;131.00;132.00;133.00;134.00;135.00;136.00;137.00;138.00;139.00;140.00;141.00;142.00;143.00;144.00;145.00;146.00;147.00;148.00;149.00;150.00;151.00;152.00;153.00;154.00;155.00;156.00;157.00;158.00;159.00;160.00;161.00;162.00;163.00;164.00;165.00;166.00;167.00;168.00;169.00;170.00;171.00;172.00;173.00;174.00;175.00;176.00;177.00;178.00;179.00;180.00;181.00;182.00;183.00;184.00;185.00;186.00;187.00;188.00;189.00;190.00;191.00;192.00;193.00;194.00;195.00;196.00;197.00;198.00;199.00;200.00;201.00;202.00;203.00;204.00;205.00;206.00;207.00;208.00;209.00;210.00;211.00;212.00;213.00;214.00;215.00;216.00;217.00;218.00;219.00;220.00;221.00;222.00;223.00;224.00;225.00;226.00;227.00;228.00;229.00;230.00;231.00;232.00;233.00;234.00;235.00;236.00;237.00;238.00;239.00;240.00;241.00;242.00;243.00;244.00;245.00;246.00;247.00;248.00;249.00;250.00;251.00;252.00;253.00;254.00;255.00;256.00;257.00;258.00;259.00;260.00;261.00;262.00;263.00;264.00;265.00;266.00;267.00;268.00;269.00;270.00;271.00;272.00;273.00;274.00;275.00;276.00;277.00;278.00;279.00;280.00;281.00;282.00;283.00;284.00;285.00;286.00;287.00;288.00;289.00;290.00;291.00;292.00;293.00;294.00;295.00;296.00;297.00;298.00;299.00;300.00;
		SCAN_CURVETYPE=PDD
		SCAN_OFFAXIS_INPLANE=0.00
		SCAN_OFFAXIS_CROSSPLANE=0.00
		SCAN_ANGLE=0.00
		SCAN_DIAGONAL=NOT_DIAGONAL
		SCAN_DIRECTION=NEGATIVE
		MEAS_MEDIUM=WATER
		MEAS_PRESET=MEAS_CONTINUOUS_REFERENCE_SCAN
		MEAS_TIME=0.100
		MEAS_UNIT=A.U.
		PRESSURE=1013.25
		TEMPERATURE=20.00
		NORM_TEMPERATURE=20.00
		CORRECTION_FACTOR=1.0000
		EXPECTED_MAX_DOSE_RATE=3.00
		BEGIN_DATA
			0.00		954.55E-03		2.3895E+00
			1.00		1.0218E+00		2.3949E+00
			2.00		1.1502E+00		2.3934E+00
			3.00		1.3418E+00		2.3901E+00
			4.00		1.4946E+00		2.3886E+00
			5.00		1.5973E+00		2.3928E+00
			6.00		1.6761E+00		2.3931E+00
			7.00		1.7431E+00		2.3889E+00
			8.00		1.7924E+00		2.3901E+00
			9.00		1.8294E+00		2.3910E+00
			10.00		1.8597E+00		2.3859E+00
			11.00		1.8758E+00		2.3862E+00
			12.00		1.8821E+00		2.3910E+00
			13.00		1.8869E+00		2.3976E+00
			14.00		1.8961E+00		2.3955E+00
			15.00		1.8975E+00		2.3889E+00
			16.00		1.9005E+00		2.3868E+00
			17.00		1.8901E+00		2.3919E+00
			18.00		1.8871E+00		2.3958E+00
			19.00		1.8777E+00		2.3934E+00
			20.00		1.8813E+00		2.3856E+00
			21.00		1.8804E+00		2.3820E+00
			22.00		1.8650E+00		2.3904E+00
			23.00		1.8537E+00		2.3871E+00
			24.00		1.8484E+00		2.3907E+00
			25.00		1.8430E+00		2.3961E+00
			26.00		1.8377E+00		2.3883E+00
			27.00		1.8288E+00		2.3901E+00
			28.00		1.8186E+00		2.3853E+00
			29.00		1.8078E+00		2.3880E+00
			30.00		1.8052E+00		2.3814E+00
			31.00		1.7896E+00		2.3922E+00
			32.00		1.7860E+00		2.3886E+00
			33.00		1.7803E+00		2.3844E+00
			34.00		1.7711E+00		2.3901E+00
			35.00		1.7607E+00		2.3922E+00
			36.00		1.7545E+00		2.3904E+00
			37.00		1.7445E+00		2.3886E+00
			38.00		1.7417E+00		2.3856E+00
			39.00		1.7253E+00		2.3961E+00
			40.00		1.7234E+00		2.3883E+00
			41.00		1.7120E+00		2.3919E+00
			42.00		1.7084E+00		2.3865E+00
			43.00		1.7015E+00		2.3856E+00
			44.00		1.6890E+00		2.3907E+00
			45.00		1.6914E+00		2.3820E+00
			46.00		1.6805E+00		2.3886E+00
			47.00		1.6679E+00		2.3868E+00
			48.00		1.6656E+00		2.3847E+00
			49.00		1.6545E+00		2.3844E+00
			50.00		1.6408E+00		2.3934E+00
			51.00		1.6345E+00		2.3952E+00
			52.00		1.6285E+00		2.3856E+00
			53.00		1.6259E+00		2.3820E+00
			54.00		1.6126E+00		2.3943E+00
			55.00		1.6044E+00		2.3841E+00
			56.00		1.5988E+00		2.3886E+00
			57.00		1.5903E+00		2.3883E+00
			58.00		1.5823E+00		2.3889E+00
			59.00		1.5758E+00		2.3949E+00
			60.00		1.5687E+00		2.3925E+00
			61.00		1.5544E+00		2.3952E+00
			62.00		1.5506E+00		2.3913E+00
			63.00		1.5448E+00		2.3847E+00
			64.00		1.5343E+00		2.3952E+00
			65.00		1.5292E+00		2.3934E+00
			66.00		1.5205E+00		2.3952E+00
			67.00		1.5115E+00		2.3937E+00
			68.00		1.5043E+00		2.3892E+00
			69.00		1.4964E+00		2.3958E+00
			70.00		1.4890E+00		2.3916E+00
			71.00		1.4824E+00		2.3901E+00
			72.00		1.4756E+00		2.3889E+00
			73.00		1.4687E+00		2.3898E+00
			74.00		1.4628E+00		2.3913E+00
			75.00		1.4540E+00		2.3934E+00
			76.00		1.4485E+00		2.3859E+00
			77.00		1.4430E+00		2.3826E+00
			78.00		1.4345E+00		2.3862E+00
			79.00		1.4252E+00		2.3892E+00
			80.00		1.4177E+00		2.3955E+00
			81.00		1.4131E+00		2.3862E+00
			82.00		1.4005E+00		2.3949E+00
			83.00		1.3932E+00		2.3880E+00
			84.00		1.3875E+00		2.3913E+00
			85.00		1.3826E+00		2.3847E+00
			86.00		1.3759E+00		2.3832E+00
			87.00		1.3692E+00		2.3838E+00
			88.00		1.3589E+00		2.3931E+00
			89.00		1.3560E+00		2.3871E+00
			90.00		1.3486E+00		2.3847E+00
			91.00		1.3408E+00		2.3874E+00
			92.00		1.3392E+00		2.3790E+00
			93.00		1.3296E+00		2.3826E+00
			94.00		1.3190E+00		2.3904E+00
			95.00		1.3115E+00		2.3904E+00
			96.00		1.3049E+00		2.3910E+00
			97.00		1.3013E+00		2.3838E+00
			98.00		1.2888E+00		2.3883E+00
			99.00		1.2821E+00		2.3844E+00
			100.00		1.2801E+00		2.3835E+00
			101.00		1.2699E+00		2.3907E+00
			102.00		1.2613E+00		2.3880E+00
			103.00		1.2579E+00		2.3850E+00
			104.00		1.2531E+00		2.3817E+00
			105.00		1.2517E+00		2.3802E+00
			106.00		1.2410E+00		2.3829E+00
			107.00		1.2311E+00		2.3907E+00
			108.00		1.2283E+00		2.3823E+00
			109.00		1.2204E+00		2.3820E+00
			110.00		1.2155E+00		2.3850E+00
			111.00		1.2078E+00		2.3919E+00
			112.00		1.2028E+00		2.3820E+00
			113.00		1.1943E+00		2.3859E+00
			114.00		1.1892E+00		2.3832E+00
			115.00		1.1820E+00		2.3841E+00
			116.00		1.1752E+00		2.3808E+00
			117.00		1.1706E+00		2.3841E+00
			118.00		1.1620E+00		2.3832E+00
			119.00		1.1549E+00		2.3868E+00
			120.00		1.1524E+00		2.3883E+00
			121.00		1.1474E+00		2.3832E+00
			122.00		1.1350E+00		2.3868E+00
			123.00		1.1310E+00		2.3865E+00
			124.00		1.1231E+00		2.3886E+00
			125.00		1.1191E+00		2.3859E+00
			126.00		1.1166E+00		2.3856E+00
			127.00		1.1112E+00		2.3823E+00
			128.00		1.1014E+00		2.3907E+00
			129.00		1.0957E+00		2.3847E+00
			130.00		1.0909E+00		2.3862E+00
			131.00		1.0823E+00		2.3841E+00
			132.00		1.0763E+00		2.3868E+00
			133.00		1.0724E+00		2.3862E+00
			134.00		1.0685E+00		2.3778E+00
			135.00		1.0596E+00		2.3901E+00
			136.00		1.0557E+00		2.3877E+00
			137.00		1.0494E+00		2.3886E+00
			138.00		1.0432E+00		2.3871E+00
			139.00		1.0407E+00		2.3883E+00
			140.00		1.0342E+00		2.3850E+00
			141.00		1.0278E+00		2.3871E+00
			142.00		1.0209E+00		2.3883E+00
			143.00		1.0145E+00		2.3952E+00
			144.00		1.0113E+00		2.3919E+00
			145.00		1.0078E+00		2.3886E+00
			146.00		1.0015E+00		2.3838E+00
			147.00		994.22E-03		2.3874E+00
			148.00		990.19E-03		2.3856E+00
			149.00		980.82E-03		2.3934E+00
			150.00		977.30E-03		2.3919E+00
			151.00		975.58E-03		2.3829E+00
			152.00		970.64E-03		2.3805E+00
			153.00		964.30E-03		2.3865E+00
			154.00		960.73E-03		2.3835E+00
			155.00		957.18E-03		2.3820E+00
			156.00		948.23E-03		2.3877E+00
			157.00		944.33E-03		2.3766E+00
			158.00		936.24E-03		2.3808E+00
			159.00		929.82E-03		2.3895E+00
			160.00		930.06E-03		2.3805E+00
			161.00		924.72E-03		2.3832E+00
			162.00		917.87E-03		2.3889E+00
			163.00		913.63E-03		2.3898E+00
			164.00		907.69E-03		2.3823E+00
			165.00		904.34E-03		2.3835E+00
			166.00		897.48E-03		2.3850E+00
			167.00		892.35E-03		2.3856E+00
			168.00		887.25E-03		2.3868E+00
			169.00		882.23E-03		2.3868E+00
			170.00		881.26E-03		2.3799E+00
			171.00		873.73E-03		2.3829E+00
			172.00		869.96E-03		2.3832E+00
			173.00		863.27E-03		2.3916E+00
			174.00		860.32E-03		2.3862E+00
			175.00		853.66E-03		2.3883E+00
			176.00		848.63E-03		2.3922E+00
			177.00		845.19E-03		2.3874E+00
			178.00		841.98E-03		2.3826E+00
			179.00		838.19E-03		2.3862E+00
			180.00		832.60E-03		2.3853E+00
			181.00		828.65E-03		2.3829E+00
			182.00		825.38E-03		2.3829E+00
			183.00		819.37E-03		2.3883E+00
			184.00		812.78E-03		2.3844E+00
			185.00		809.45E-03		2.3868E+00
			186.00		807.99E-03		2.3811E+00
			187.00		805.66E-03		2.3757E+00
			188.00		798.77E-03		2.3808E+00
			189.00		790.99E-03		2.3841E+00
			190.00		790.10E-03		2.3811E+00
			191.00		784.90E-03		2.3808E+00
			192.00		780.15E-03		2.3880E+00
			193.00		776.72E-03		2.3916E+00
			194.00		770.75E-03		2.3895E+00
			195.00		768.77E-03		2.3859E+00
			196.00		764.08E-03		2.3856E+00
			197.00		759.24E-03		2.3874E+00
			198.00		756.19E-03		2.3883E+00
			199.00		752.74E-03		2.3829E+00
			200.00		748.24E-03		2.3820E+00
			201.00		742.26E-03		2.3826E+00
			202.00		738.27E-03		2.3841E+00
			203.00		737.31E-03		2.3811E+00
			204.00		733.09E-03		2.3772E+00
			205.00		727.57E-03		2.3775E+00
			206.00		725.14E-03		2.3838E+00
			207.00		720.12E-03		2.3817E+00
			208.00		717.87E-03		2.3787E+00
			209.00		714.77E-03		2.3781E+00
			210.00		710.56E-03		2.3808E+00
			211.00		704.74E-03		2.3877E+00
			212.00		699.87E-03		2.3850E+00
			213.00		696.50E-03		2.3862E+00
			214.00		692.84E-03		2.3841E+00
			215.00		689.37E-03		2.3787E+00
			216.00		685.88E-03		2.3781E+00
			217.00		681.83E-03		2.3808E+00
			218.00		678.54E-03		2.3835E+00
			219.00		674.84E-03		2.3850E+00
			220.00		670.32E-03		2.3832E+00
			221.00		665.36E-03		2.3793E+00
			222.00		663.73E-03		2.3820E+00
			223.00		660.00E-03		2.3832E+00
			224.00		656.21E-03		2.3823E+00
			225.00		653.64E-03		2.3802E+00
			226.00		650.89E-03		2.3769E+00
			227.00		646.36E-03		2.3736E+00
			228.00		642.15E-03		2.3817E+00
			229.00		638.71E-03		2.3790E+00
			230.00		636.65E-03		2.3820E+00
			231.00		633.14E-03		2.3895E+00
			232.00		628.83E-03		2.3868E+00
			233.00		623.35E-03		2.3847E+00
			234.00		620.82E-03		2.3775E+00
			235.00		617.75E-03		2.3733E+00
			236.00		612.35E-03		2.3805E+00
			237.00		609.84E-03		2.3790E+00
			238.00		608.35E-03		2.3784E+00
			239.00		605.60E-03		2.3778E+00
			240.00		603.64E-03		2.3766E+00
			241.00		599.29E-03		2.3793E+00
			242.00		596.55E-03		2.3802E+00
			243.00		590.62E-03		2.3787E+00
			244.00		589.85E-03		2.3772E+00
			245.00		588.15E-03		2.3739E+00
			246.00		582.45E-03		2.3796E+00
			247.00		579.71E-03		2.3748E+00
			248.00		577.29E-03		2.3676E+00
			249.00		574.67E-03		2.3763E+00
			250.00		570.00E-03		2.3742E+00
			251.00		566.68E-03		2.3823E+00
			252.00		564.49E-03		2.3793E+00
			253.00		560.15E-03		2.3865E+00
			254.00		557.88E-03		2.3817E+00
			255.00		553.80E-03		2.3781E+00
			256.00		551.47E-03		2.3811E+00
			257.00		549.02E-03		2.3808E+00
			258.00		545.47E-03		2.3787E+00
			259.00		541.74E-03		2.3790E+00
			260.00		540.76E-03		2.3739E+00
			261.00		537.11E-03		2.3727E+00
			262.00		532.80E-03		2.3778E+00
			263.00		531.41E-03		2.3829E+00
			264.00		525.16E-03		2.3850E+00
			265.00		524.97E-03		2.3733E+00
			266.00		522.05E-03		2.3739E+00
			267.00		520.56E-03		2.3784E+00
			268.00		519.45E-03		2.3754E+00
			269.00		516.59E-03		2.3775E+00
			270.00		513.76E-03		2.3772E+00
			271.00		510.43E-03		2.3733E+00
			272.00		507.20E-03		2.3742E+00
			273.00		503.48E-03		2.3733E+00
			274.00		502.02E-03		2.3772E+00
			275.00		499.62E-03		2.3724E+00
			276.00		496.66E-03		2.3787E+00
			277.00		492.12E-03		2.3781E+00
			278.00		489.92E-03		2.3814E+00
			279.00		488.51E-03		2.3766E+00
			280.00		487.02E-03		2.3691E+00
			281.00		482.36E-03		2.3808E+00
			282.00		482.36E-03		2.3727E+00
			283.00		477.76E-03		2.3805E+00
			284.00		473.61E-03		2.3925E+00
			285.00		472.33E-03		2.3856E+00
			286.00		471.51E-03		2.3745E+00
			287.00		467.83E-03		2.3778E+00
			288.00		465.19E-03		2.3829E+00
			289.00		463.26E-03		2.3721E+00
			290.00		458.82E-03		2.3787E+00
			291.00		458.41E-03		2.3802E+00
			292.00		454.02E-03		2.3814E+00
			293.00		452.26E-03		2.3754E+00
			294.00		451.51E-03		2.3727E+00
			295.00		448.38E-03		2.3772E+00
			296.00		444.74E-03		2.3805E+00
			297.00		443.77E-03		2.3823E+00
			298.00		442.58E-03		2.3772E+00
			299.00		437.88E-03		2.3808E+00
			300.00		435.90E-03		2.3751E+00
		END_DATA
	END_SCAN  1
END_SCAN_DATA
