BEGIN_SCAN_DATA
	FORMAT=CC-Export V1.9                  
	FILE_CREATION_DATE=14-Jun-2023 11:40:17
	LAST_MODIFIED=14-Jun-2023 11:40:17
	BEGIN_SCAN  1
		TASK_NAME=tba PDD Profiles
		PROGRAM=WaterTankScans
		MEAS_DATE=14-Jun-2023 11:37:57
		LINAC=L1 ELEKTA VERSA
		MODALITY=X
		ISOCENTER=1000.00
		INPLANE_AXIS=Inplane
		CROSSPLANE_AXIS=Crossplane
		DEPTH_AXIS=Depth
		INPLANE_AXIS_DIR=GUN_TARGET
		CROSSPLANE_AXIS_DIR=LEFT_RIGHT
		DEPTH_AXIS_DIR=UP_DOWN
		ENERGY=6.00
		NOMINAL_DMAX=16.00
		SSD=1000.00
		WEDGE_ANGLE=0.00
		FIELD_INPLANE=100.00
		FIELD_CROSSPLANE=100.00
		FIELD_TYPE=RECTANGULAR
		GANTRY=0.00
		GANTRY_UPRIGHT_POSITION=0
		GANTRY_ROTATION=CW
		COLL_ANGLE=0.00
		COLL_OFFSET_INPLANE=0.00
		COLL_OFFSET_CROSSPLANE=0.00
		SCAN_DEVICE=BeamScan
		SCAN_DEVICE_SETUP=BARA_LEFT_RIGHT
		ELECTROMETER=BeamScan
		RANGE_FIELD=LOW
		RANGE_REFERENCE=LOW
		DETECTOR=THIMBLE_CHAMBER
		DETECTOR_SUBCODE=SEMIFLEX
		DETECTOR_RADIUS=2.40
		DETECTOR_NAME=PTW Semiflex 3D (Field)
		DETECTOR_SN=141799
		DETECTOR_CALIBRATION=500000000.00
		DETECTOR_IS_CALIBRATED=1
		DETECTOR_REFERENCE=THIMBLE_CHAMBER
		DETECTOR_REFERENCE_SUBCODE=SEMIFLEX
		DETECTOR_REFERENCE_RADIUS=2.40
		DETECTOR_REFERENCE_NAME=PTW Semiflex 3D (REF)
		DETECTOR_REFERENCE_SN=141800
		DETECTOR_REFERENCE_IS_CALIBRATED=0
		DETECTOR_REFERENCE_CALIBRATION=500000000.00
		DETECTOR_HV=400.0
		DETECTOR_REFERENCE_HV=400.0
		DETECTOR_ORIENTATION=HORIZONTAL
		FILTER=FF
		SCAN_SPEED_PROFILE=0.00
		SCAN_PROF_SPEED_DEP=DEPTH
		SCAN_SPEED_PDD=5.00
		SCAN_PDD_SPEED_DEP=ENERGY
		REF_FIELD_DEPTH=0.00
		REF_FIELD_DEFINED=WATER_SURFACE
		REF_FIELD_INPLANE=100.00
		REF_FIELD_CROSSPLANE=100.00
		REF_SCAN_POSITIONS=0.00;1.00;2.00;3.00;4.00;5.00;6.00;7.00;8.00;9.00;10.00;11.00;12.00;13.00;14.00;15.00;16.00;17.00;18.00;19.00;20.00;21.00;22.00;23.00;24.00;25.00;26.00;27.00;28.00;29.00;30.00;31.00;32.00;33.00;34.00;35.00;36.00;37.00;38.00;39.00;40.00;41.00;42.00;43.00;44.00;45.00;46.00;47.00;48.00;49.00;50.00;51.00;52.00;53.00;54.00;55.00;56.00;57.00;58.00;59.00;60.00;61.00;62.00;63.00;64.00;65.00;66.00;67.00;68.00;69.00;70.00;71.00;72.00;73.00;74.00;75.00;76.00;77.00;78.00;79.00;80.00;81.00;82.00;83.00;84.00;85.00;86.00;87.00;88.00;89.00;90.00;91.00;92.00;93.00;94.00;95.00;96.00;97.00;98.00;99.00;100.00;101.00;102.00;103.00;104.00;105.00;106.00;107.00;108.00;109.00;110.00;111.00;112.00;113.00;114.00;115.00;116.00;117.00;118.00;119.00;120.00;121.00;122.00;123.00;124.00;125.00;126.00;127.00;128.00;129.00;130.00;131.00;132.00;133.00;134.00;135.00;136.00;137.00;138.00;139.00;140.00;141.00;142.00;143.00;144.00;145.00;146.00;147.00;148.00;149.00;150.00;151.00;152.00;153.00;154.00;155.00;156.00;157.00;158.00;159.00;160.00;161.00;162.00;163.00;164.00;165.00;166.00;167.00;168.00;169.00;170.00;171.00;172.00;173.00;174.00;175.00;176.00;177.00;178.00;179.00;180.00;181.00;182.00;183.00;184.00;185.00;186.00;187.00;188.00;189.00;190.00;191.00;192.00;193.00;194.00;195.00;196.00;197.00;198.00;199.00;200.00;201.00;202.00;203.00;204.00;205.00;206.00;207.00;208.00;209.00;210.00;211.00;212.00;213.00;214.00;215.00;216.00;217.00;218.00;219.00;220.00;221.00;222.00;223.00;224.00;225.00;226.00;227.00;228.00;229.00;230.00;231.00;232.00;233.00;234.00;235.00;236.00;237.00;238.00;239.00;240.00;241.00;242.00;243.00;244.00;245.00;246.00;247.00;248.00;249.00;250.00;251.00;252.00;253.00;254.00;255.00;256.00;257.00;258.00;259.00;260.00;261.00;262.00;263.00;264.00;265.00;266.00;267.00;268.00;269.00;270.00;271.00;272.00;273.00;274.00;275.00;276.00;277.00;278.00;279.00;280.00;281.00;282.00;283.00;284.00;285.00;286.00;287.00;288.00;289.00;290.00;291.00;292.00;293.00;294.00;295.00;296.00;297.00;298.00;299.00;300.00;
		SCAN_CURVETYPE=PDD
		SCAN_OFFAXIS_INPLANE=0.00
		SCAN_OFFAXIS_CROSSPLANE=0.00
		SCAN_ANGLE=0.00
		SCAN_DIAGONAL=NOT_DIAGONAL
		SCAN_DIRECTION=NEGATIVE
		MEAS_MEDIUM=WATER
		MEAS_PRESET=MEAS_CONTINUOUS_REFERENCE_SCAN
		MEAS_TIME=0.200
		MEAS_UNIT=A.U.
		INCLINATION_ANGLE=0.00
		PRESSURE=1013.25
		TEMPERATURE=20.00
		NORM_TEMPERATURE=20.00
		CORRECTION_FACTOR=1.0000
		EXPECTED_MAX_DOSE_RATE=3.00
		BEGIN_DATA
			0.00		782.87E-03		4.4490E+00
			1.00		830.53E-03		4.4610E+00
			2.00		900.67E-03		4.4700E+00
			3.00		1.0384E+00		4.4550E+00
			4.00		1.1741E+00		4.4640E+00
			5.00		1.2728E+00		4.4640E+00
			6.00		1.3516E+00		4.4460E+00
			7.00		1.4075E+00		4.4610E+00
			8.00		1.4548E+00		4.4460E+00
			9.00		1.4798E+00		4.4640E+00
			10.00		1.5088E+00		4.4460E+00
			11.00		1.5270E+00		4.4520E+00
			12.00		1.5393E+00		4.4610E+00
			13.00		1.5461E+00		4.4610E+00
			14.00		1.5515E+00		4.4550E+00
			15.00		1.5522E+00		4.4550E+00
			16.00		1.5542E+00		4.4550E+00
			17.00		1.5511E+00		4.4580E+00
			18.00		1.5488E+00		4.4550E+00
			19.00		1.5471E+00		4.4580E+00
			20.00		1.5404E+00		4.4580E+00
			21.00		1.5336E+00		4.4640E+00
			22.00		1.5296E+00		4.4580E+00
			23.00		1.5226E+00		4.4550E+00
			24.00		1.5168E+00		4.4640E+00
			25.00		1.5111E+00		4.4490E+00
			26.00		1.5024E+00		4.4610E+00
			27.00		1.4970E+00		4.4610E+00
			28.00		1.4919E+00		4.4580E+00
			29.00		1.4882E+00		4.4490E+00
			30.00		1.4838E+00		4.4340E+00
			31.00		1.4724E+00		4.4580E+00
			32.00		1.4640E+00		4.4610E+00
			33.00		1.4633E+00		4.4550E+00
			34.00		1.4545E+00		4.4550E+00
			35.00		1.4462E+00		4.4580E+00
			36.00		1.4401E+00		4.4580E+00
			37.00		1.4349E+00		4.4490E+00
			38.00		1.4324E+00		4.4400E+00
			39.00		1.4197E+00		4.4670E+00
			40.00		1.4145E+00		4.4580E+00
			41.00		1.4082E+00		4.4610E+00
			42.00		1.4023E+00		4.4520E+00
			43.00		1.3943E+00		4.4580E+00
			44.00		1.3922E+00		4.4520E+00
			45.00		1.3830E+00		4.4490E+00
			46.00		1.3790E+00		4.4490E+00
			47.00		1.3668E+00		4.4580E+00
			48.00		1.3636E+00		4.4550E+00
			49.00		1.3557E+00		4.4610E+00
			50.00		1.3515E+00		4.4550E+00
			51.00		1.3464E+00		4.4520E+00
			52.00		1.3371E+00		4.4580E+00
			53.00		1.3311E+00		4.4490E+00
			54.00		1.3266E+00		4.4550E+00
			55.00		1.3181E+00		4.4610E+00
			56.00		1.3131E+00		4.4550E+00
			57.00		1.3046E+00		4.4610E+00
			58.00		1.3021E+00		4.4490E+00
			59.00		1.2958E+00		4.4520E+00
			60.00		1.2856E+00		4.4640E+00
			61.00		1.2822E+00		4.4550E+00
			62.00		1.2753E+00		4.4460E+00
			63.00		1.2695E+00		4.4520E+00
			64.00		1.2631E+00		4.4580E+00
			65.00		1.2588E+00		4.4520E+00
			66.00		1.2500E+00		4.4520E+00
			67.00		1.2458E+00		4.4550E+00
			68.00		1.2370E+00		4.4550E+00
			69.00		1.2308E+00		4.4580E+00
			70.00		1.2242E+00		4.4550E+00
			71.00		1.2231E+00		4.4250E+00
			72.00		1.2137E+00		4.4640E+00
			73.00		1.2055E+00		4.4520E+00
			74.00		1.2009E+00		4.4490E+00
			75.00		1.1974E+00		4.4520E+00
			76.00		1.1886E+00		4.4550E+00
			77.00		1.1837E+00		4.4430E+00
			78.00		1.1802E+00		4.4460E+00
			79.00		1.1715E+00		4.4610E+00
			80.00		1.1678E+00		4.4520E+00
			81.00		1.1590E+00		4.4520E+00
			82.00		1.1535E+00		4.4550E+00
			83.00		1.1474E+00		4.4580E+00
			84.00		1.1412E+00		4.4400E+00
			85.00		1.1366E+00		4.4370E+00
			86.00		1.1301E+00		4.4490E+00
			87.00		1.1237E+00		4.4640E+00
			88.00		1.1198E+00		4.4580E+00
			89.00		1.1140E+00		4.4490E+00
			90.00		1.1092E+00		4.4490E+00
			91.00		1.1025E+00		4.4490E+00
			92.00		1.0962E+00		4.4580E+00
			93.00		1.0910E+00		4.4520E+00
			94.00		1.0850E+00		4.4490E+00
			95.00		1.0807E+00		4.4250E+00
			96.00		1.0685E+00		4.4640E+00
			97.00		1.0681E+00		4.4490E+00
			98.00		1.0662E+00		4.4400E+00
			99.00		1.0587E+00		4.4460E+00
			100.00		1.0541E+00		4.4400E+00
			101.00		1.0478E+00		4.4550E+00
			102.00		1.0418E+00		4.4520E+00
			103.00		1.0364E+00		4.4490E+00
			104.00		1.0296E+00		4.4520E+00
			105.00		1.0256E+00		4.4490E+00
			106.00		1.0182E+00		4.4580E+00
			107.00		1.0128E+00		4.4520E+00
			108.00		1.0101E+00		4.4400E+00
			109.00		1.0047E+00		4.4370E+00
			110.00		997.98E-03		4.4550E+00
			111.00		994.59E-03		4.4400E+00
			112.00		989.23E-03		4.4550E+00
			113.00		981.11E-03		4.4460E+00
			114.00		977.73E-03		4.4460E+00
			115.00		971.68E-03		4.4490E+00
			116.00		966.94E-03		4.4460E+00
			117.00		964.16E-03		4.4370E+00
			118.00		959.54E-03		4.4490E+00
			119.00		950.87E-03		4.4580E+00
			120.00		946.02E-03		4.4460E+00
			121.00		939.39E-03		4.4550E+00
			122.00		937.92E-03		4.4460E+00
			123.00		931.66E-03		4.4340E+00
			124.00		930.94E-03		4.4310E+00
			125.00		920.54E-03		4.4550E+00
			126.00		915.82E-03		4.4550E+00
			127.00		914.13E-03		4.4370E+00
			128.00		908.29E-03		4.4490E+00
			129.00		902.96E-03		4.4520E+00
			130.00		898.65E-03		4.4400E+00
			131.00		895.88E-03		4.4370E+00
			132.00		889.41E-03		4.4490E+00
			133.00		884.54E-03		4.4430E+00
			134.00		879.38E-03		4.4520E+00
			135.00		875.00E-03		4.4400E+00
			136.00		869.86E-03		4.4490E+00
			137.00		866.31E-03		4.4430E+00
			138.00		861.67E-03		4.4460E+00
			139.00		855.22E-03		4.4550E+00
			140.00		852.90E-03		4.4460E+00
			141.00		849.12E-03		4.4340E+00
			142.00		845.53E-03		4.4280E+00
			143.00		838.17E-03		4.4490E+00
			144.00		834.46E-03		4.4400E+00
			145.00		830.41E-03		4.4400E+00
			146.00		824.56E-03		4.4460E+00
			147.00		820.39E-03		4.4430E+00
			148.00		816.09E-03		4.4370E+00
			149.00		814.31E-03		4.4430E+00
			150.00		807.41E-03		4.4550E+00
			151.00		802.29E-03		4.4460E+00
			152.00		799.06E-03		4.4490E+00
			153.00		795.41E-03		4.4430E+00
			154.00		790.68E-03		4.4430E+00
			155.00		787.26E-03		4.4280E+00
			156.00		782.73E-03		4.4460E+00
			157.00		778.68E-03		4.4460E+00
			158.00		774.11E-03		4.4490E+00
			159.00		770.11E-03		4.4370E+00
			160.00		766.83E-03		4.4130E+00
			161.00		761.65E-03		4.4430E+00
			162.00		757.09E-03		4.4460E+00
			163.00		752.03E-03		4.4400E+00
			164.00		749.49E-03		4.4430E+00
			165.00		745.77E-03		4.4370E+00
			166.00		743.57E-03		4.4340E+00
			167.00		738.51E-03		4.4400E+00
			168.00		732.43E-03		4.4400E+00
			169.00		729.73E-03		4.4400E+00
			170.00		725.86E-03		4.4430E+00
			171.00		722.11E-03		4.4370E+00
			172.00		719.70E-03		4.4310E+00
			173.00		714.38E-03		4.4430E+00
			174.00		710.33E-03		4.4430E+00
			175.00		706.95E-03		4.4430E+00
			176.00		704.61E-03		4.4280E+00
			177.00		699.19E-03		4.4280E+00
			178.00		694.54E-03		4.4490E+00
			179.00		691.68E-03		4.4370E+00
			180.00		686.45E-03		4.4490E+00
			181.00		684.50E-03		4.4310E+00
			182.00		680.22E-03		4.4280E+00
			183.00		676.57E-03		4.4430E+00
			184.00		672.41E-03		4.4370E+00
			185.00		671.11E-03		4.4340E+00
			186.00		666.96E-03		4.4400E+00
			187.00		662.52E-03		4.4340E+00
			188.00		658.50E-03		4.4310E+00
			189.00		656.61E-03		4.4250E+00
			190.00		652.71E-03		4.4340E+00
			191.00		647.50E-03		4.4460E+00
			192.00		644.69E-03		4.4370E+00
			193.00		641.31E-03		4.4370E+00
			194.00		637.64E-03		4.4310E+00
			195.00		634.62E-03		4.4190E+00
			196.00		631.46E-03		4.4250E+00
			197.00		627.94E-03		4.4460E+00
			198.00		624.25E-03		4.4280E+00
			199.00		621.56E-03		4.4250E+00
			200.00		617.95E-03		4.4280E+00
			201.00		613.50E-03		4.4430E+00
			202.00		610.02E-03		4.4310E+00
			203.00		607.85E-03		4.4340E+00
			204.00		603.52E-03		4.4370E+00
			205.00		600.68E-03		4.4400E+00
			206.00		599.93E-03		4.4220E+00
			207.00		595.73E-03		4.4250E+00
			208.00		593.09E-03		4.4280E+00
			209.00		588.63E-03		4.4310E+00
			210.00		585.52E-03		4.4340E+00
			211.00		581.74E-03		4.4190E+00
			212.00		578.05E-03		4.4280E+00
			213.00		576.49E-03		4.4280E+00
			214.00		572.51E-03		4.4310E+00
			215.00		568.22E-03		4.4370E+00
			216.00		567.10E-03		4.4220E+00
			217.00		564.84E-03		4.4280E+00
			218.00		560.14E-03		4.4400E+00
			219.00		556.22E-03		4.4400E+00
			220.00		553.42E-03		4.4310E+00
			221.00		551.77E-03		4.4100E+00
			222.00		549.15E-03		4.4010E+00
			223.00		545.57E-03		4.4370E+00
			224.00		541.18E-03		4.4370E+00
			225.00		539.50E-03		4.4280E+00
			226.00		537.27E-03		4.4190E+00
			227.00		535.98E-03		4.4190E+00
			228.00		531.46E-03		4.4340E+00
			229.00		528.49E-03		4.4220E+00
			230.00		526.38E-03		4.4130E+00
			231.00		523.19E-03		4.4250E+00
			232.00		519.91E-03		4.4310E+00
			233.00		516.31E-03		4.4340E+00
			234.00		514.24E-03		4.4250E+00
			235.00		510.78E-03		4.4250E+00
			236.00		508.41E-03		4.4250E+00
			237.00		506.78E-03		4.4280E+00
			238.00		503.32E-03		4.4280E+00
			239.00		500.07E-03		4.4220E+00
			240.00		498.24E-03		4.4220E+00
			241.00		495.40E-03		4.4370E+00
			242.00		492.22E-03		4.4340E+00
			243.00		489.45E-03		4.4340E+00
			244.00		487.33E-03		4.4280E+00
			245.00		484.50E-03		4.4130E+00
			246.00		482.92E-03		4.3920E+00
			247.00		480.24E-03		4.4340E+00
			248.00		476.03E-03		4.4310E+00
			249.00		473.73E-03		4.4190E+00
			250.00		471.61E-03		4.4280E+00
			251.00		470.94E-03		4.4190E+00
			252.00		466.12E-03		4.4280E+00
			253.00		464.29E-03		4.4190E+00
			254.00		461.86E-03		4.4280E+00
			255.00		459.54E-03		4.4190E+00
			256.00		456.00E-03		4.4250E+00
			257.00		455.46E-03		4.4190E+00
			258.00		452.51E-03		4.4220E+00
			259.00		450.10E-03		4.4130E+00
			260.00		446.68E-03		4.4340E+00
			261.00		445.18E-03		4.4160E+00
			262.00		442.69E-03		4.4130E+00
			263.00		440.54E-03		4.4100E+00
			264.00		438.33E-03		4.4220E+00
			265.00		434.64E-03		4.4250E+00
			266.00		434.19E-03		4.4130E+00
			267.00		431.31E-03		4.4070E+00
			268.00		429.12E-03		4.4190E+00
			269.00		425.90E-03		4.4250E+00
			270.00		424.49E-03		4.4220E+00
			271.00		423.28E-03		4.3950E+00
			272.00		420.40E-03		4.3830E+00
			273.00		416.84E-03		4.4370E+00
			274.00		416.01E-03		4.4040E+00
			275.00		413.64E-03		4.4220E+00
			276.00		411.89E-03		4.4160E+00
			277.00		407.80E-03		4.4220E+00
			278.00		407.57E-03		4.4010E+00
			279.00		404.97E-03		4.4100E+00
			280.00		401.63E-03		4.4250E+00
			281.00		399.39E-03		4.4160E+00
			282.00		398.16E-03		4.4070E+00
			283.00		397.27E-03		4.4010E+00
			284.00		393.22E-03		4.4220E+00
			285.00		391.25E-03		4.4220E+00
			286.00		390.40E-03		4.4040E+00
			287.00		388.10E-03		4.4130E+00
			288.00		385.77E-03		4.4070E+00
			289.00		383.46E-03		4.4070E+00
			290.00		382.01E-03		4.4190E+00
			291.00		380.12E-03		4.4070E+00
			292.00		377.93E-03		4.4040E+00
			293.00		375.99E-03		4.4100E+00
			294.00		374.15E-03		4.4100E+00
			295.00		372.80E-03		4.4010E+00
			296.00		370.09E-03		4.4130E+00
			297.00		368.51E-03		4.4010E+00
			298.00		366.58E-03		4.4070E+00
			299.00		364.91E-03		4.3950E+00
			300.00		363.10E-03		4.4070E+00
		END_DATA
	END_SCAN  1
END_SCAN_DATA
