BEGIN_SCAN_DATA
	FORMAT=CC-Export V1.9                  
	FILE_CREATION_DATE=18-Nov-2022 07:58:06
	LAST_MODIFIED=18-Nov-2022 07:58:06
	BEGIN_SCAN  1
		TASK_NAME=tba PDD Profiles
		PROGRAM=WaterTankScans
		MEAS_DATE=18-Nov-2022 07:56:57
		LINAC=L3 ELEKTA SYNERGY
		MODALITY=X
		ISOCENTER=1000.00
		INPLANE_AXIS=Inplane
		CROSSPLANE_AXIS=Crossplane
		DEPTH_AXIS=Depth
		INPLANE_AXIS_DIR=GUN_TARGET
		CROSSPLANE_AXIS_DIR=LEFT_RIGHT
		DEPTH_AXIS_DIR=UP_DOWN
		ENERGY=6.00
		NOMINAL_DMAX=16.00
		SSD=1000.00
		BLOCK=0
		WEDGE_ANGLE=0.00
		FIELD_INPLANE=100.00
		FIELD_CROSSPLANE=100.00
		FIELD_TYPE=RECTANGULAR
		GANTRY=0.00
		GANTRY_UPRIGHT_POSITION=0
		GANTRY_ROTATION=CW
		COLL_ANGLE=0.00
		COLL_OFFSET_INPLANE=0.00
		COLL_OFFSET_CROSSPLANE=0.00
		SCAN_DEVICE=BeamScan
		SCAN_DEVICE_SETUP=BARA_LEFT_RIGHT
		ELECTROMETER=BeamScan
		RANGE_FIELD=MEDIUM
		RANGE_REFERENCE=MEDIUM
		DETECTOR=THIMBLE_CHAMBER
		DETECTOR_SUBCODE=SEMIFLEX
		DETECTOR_RADIUS=2.40
		DETECTOR_NAME=PTW Semiflex 3D (Field)
		DETECTOR_SN=141799
		DETECTOR_CALIBRATION=500000000.00
		DETECTOR_IS_CALIBRATED=1
		DETECTOR_REFERENCE=THIMBLE_CHAMBER
		DETECTOR_REFERENCE_SUBCODE=SEMIFLEX
		DETECTOR_REFERENCE_RADIUS=2.40
		DETECTOR_REFERENCE_NAME=PTW Semiflex 3D (REF)
		DETECTOR_REFERENCE_SN=141800
		DETECTOR_REFERENCE_IS_CALIBRATED=0
		DETECTOR_REFERENCE_CALIBRATION=500000000.00
		DETECTOR_HV=400.0
		DETECTOR_REFERENCE_HV=400.0
		DETECTOR_ORIENTATION=HORIZONTAL
		FILTER=FF
		SCAN_SPEED_PROFILE=0.00
		SCAN_PROF_SPEED_DEP=DEPTH
		SCAN_SPEED_PDD=5.00
		SCAN_PDD_SPEED_DEP=ENERGY
		REF_FIELD_DEPTH=0.00
		REF_FIELD_DEFINED=WATER_SURFACE
		REF_FIELD_INPLANE=100.00
		REF_FIELD_CROSSPLANE=100.00
		REF_SCAN_POSITIONS=0.00;1.00;2.00;3.00;4.00;5.00;6.00;7.00;8.00;9.00;10.00;11.00;12.00;13.00;14.00;15.00;16.00;17.00;18.00;19.00;20.00;21.00;22.00;23.00;24.00;25.00;26.00;27.00;28.00;29.00;30.00;31.00;32.00;33.00;34.00;35.00;36.00;37.00;38.00;39.00;40.00;41.00;42.00;43.00;44.00;45.00;46.00;47.00;48.00;49.00;50.00;51.00;52.00;53.00;54.00;55.00;56.00;57.00;58.00;59.00;60.00;61.00;62.00;63.00;64.00;65.00;66.00;67.00;68.00;69.00;70.00;71.00;72.00;73.00;74.00;75.00;76.00;77.00;78.00;79.00;80.00;81.00;82.00;83.00;84.00;85.00;86.00;87.00;88.00;89.00;90.00;91.00;92.00;93.00;94.00;95.00;96.00;97.00;98.00;99.00;100.00;101.00;102.00;103.00;104.00;105.00;106.00;107.00;108.00;109.00;110.00;111.00;112.00;113.00;114.00;115.00;116.00;117.00;118.00;119.00;120.00;121.00;122.00;123.00;124.00;125.00;126.00;127.00;128.00;129.00;130.00;131.00;132.00;133.00;134.00;135.00;136.00;137.00;138.00;139.00;140.00;141.00;142.00;143.00;144.00;145.00;146.00;147.00;148.00;149.00;150.00;151.00;152.00;153.00;154.00;155.00;156.00;157.00;158.00;159.00;160.00;161.00;162.00;163.00;164.00;165.00;166.00;167.00;168.00;169.00;170.00;171.00;172.00;173.00;174.00;175.00;176.00;177.00;178.00;179.00;180.00;181.00;182.00;183.00;184.00;185.00;186.00;187.00;188.00;189.00;190.00;191.00;192.00;193.00;194.00;195.00;196.00;197.00;198.00;199.00;200.00;201.00;202.00;203.00;204.00;205.00;206.00;207.00;208.00;209.00;210.00;211.00;212.00;213.00;214.00;215.00;216.00;217.00;218.00;219.00;220.00;221.00;222.00;223.00;224.00;225.00;226.00;227.00;228.00;229.00;230.00;231.00;232.00;233.00;234.00;235.00;236.00;237.00;238.00;239.00;240.00;241.00;242.00;243.00;244.00;245.00;246.00;247.00;248.00;249.00;250.00;251.00;252.00;253.00;254.00;255.00;256.00;257.00;258.00;259.00;260.00;261.00;262.00;263.00;264.00;265.00;266.00;267.00;268.00;269.00;270.00;271.00;272.00;273.00;274.00;275.00;276.00;277.00;278.00;279.00;280.00;281.00;282.00;283.00;284.00;285.00;286.00;287.00;288.00;289.00;290.00;291.00;292.00;293.00;294.00;295.00;296.00;297.00;298.00;299.00;300.00;
		SCAN_CURVETYPE=PDD
		SCAN_OFFAXIS_INPLANE=0.00
		SCAN_OFFAXIS_CROSSPLANE=0.00
		SCAN_ANGLE=0.00
		SCAN_DIAGONAL=NOT_DIAGONAL
		SCAN_DIRECTION=NEGATIVE
		MEAS_MEDIUM=WATER
		MEAS_PRESET=MEAS_CONTINUOUS_REFERENCE_SCAN
		MEAS_TIME=0.200
		MEAS_UNIT=A.U.
		PRESSURE=1013.25
		TEMPERATURE=20.00
		NORM_TEMPERATURE=20.00
		CORRECTION_FACTOR=1.0000
		EXPECTED_MAX_DOSE_RATE=3.00
		BEGIN_DATA
			0.00		380.48E-03		6.0240E+00
			1.00		415.84E-03		6.0240E+00
			2.00		475.83E-03		6.0210E+00
			3.00		549.35E-03		6.0180E+00
			4.00		604.58E-03		6.0240E+00
			5.00		647.73E-03		6.0210E+00
			6.00		677.97E-03		6.0180E+00
			7.00		700.35E-03		6.0270E+00
			8.00		719.62E-03		6.0240E+00
			9.00		733.67E-03		6.0150E+00
			10.00		742.27E-03		6.0180E+00
			11.00		749.00E-03		6.0240E+00
			12.00		752.86E-03		6.0210E+00
			13.00		756.35E-03		6.0210E+00
			14.00		757.97E-03		6.0240E+00
			15.00		758.96E-03		6.0240E+00
			16.00		756.97E-03		6.0240E+00
			17.00		755.98E-03		6.0240E+00
			18.00		755.23E-03		6.0180E+00
			19.00		751.74E-03		6.0180E+00
			20.00		748.51E-03		6.0240E+00
			21.00		746.63E-03		6.0150E+00
			22.00		743.03E-03		6.0240E+00
			23.00		739.17E-03		6.0270E+00
			24.00		739.28E-03		6.0180E+00
			25.00		734.30E-03		6.0180E+00
			26.00		731.67E-03		6.0150E+00
			27.00		729.54E-03		6.0120E+00
			28.00		723.47E-03		6.0210E+00
			29.00		721.20E-03		6.0150E+00
			30.00		716.77E-03		6.0270E+00
			31.00		715.50E-03		6.0210E+00
			32.00		711.16E-03		6.0240E+00
			33.00		710.37E-03		6.0180E+00
			34.00		706.38E-03		6.0180E+00
			35.00		702.89E-03		6.0180E+00
			36.00		699.95E-03		6.0090E+00
			37.00		696.91E-03		6.0180E+00
			38.00		692.58E-03		6.0210E+00
			39.00		689.59E-03		6.0210E+00
			40.00		686.60E-03		6.0210E+00
			41.00		684.45E-03		6.0180E+00
			42.00		681.64E-03		6.0120E+00
			43.00		676.81E-03		6.0150E+00
			44.00		674.64E-03		6.0210E+00
			45.00		670.82E-03		6.0150E+00
			46.00		669.16E-03		6.0210E+00
			47.00		666.17E-03		6.0030E+00
			48.00		662.51E-03		6.0090E+00
			49.00		659.52E-03		6.0180E+00
			50.00		655.53E-03		6.0180E+00
			51.00		651.55E-03		6.0180E+00
			52.00		649.55E-03		6.0180E+00
			53.00		646.53E-03		6.0090E+00
			54.00		644.03E-03		6.0090E+00
			55.00		639.90E-03		6.0150E+00
			56.00		637.41E-03		6.0150E+00
			57.00		633.60E-03		6.0180E+00
			58.00		630.55E-03		6.0090E+00
			59.00		629.06E-03		6.0090E+00
			60.00		625.75E-03		6.0120E+00
			61.00		621.82E-03		6.0210E+00
			62.00		619.26E-03		6.0120E+00
			63.00		617.19E-03		6.0030E+00
			64.00		613.16E-03		6.0180E+00
			65.00		609.87E-03		6.0210E+00
			66.00		606.79E-03		6.0120E+00
			67.00		602.99E-03		6.0150E+00
			68.00		600.60E-03		6.0090E+00
			69.00		598.00E-03		6.0150E+00
			70.00		594.51E-03		6.0150E+00
			71.00		591.52E-03		6.0150E+00
			72.00		589.53E-03		6.0150E+00
			73.00		586.12E-03		6.0090E+00
			74.00		583.13E-03		6.0090E+00
			75.00		579.55E-03		6.0150E+00
			76.00		577.13E-03		6.0090E+00
			77.00		574.35E-03		6.0120E+00
			78.00		571.64E-03		6.0090E+00
			79.00		567.93E-03		6.0060E+00
			80.00		565.37E-03		6.0120E+00
			81.00		562.38E-03		6.0120E+00
			82.00		560.38E-03		6.0120E+00
			83.00		558.16E-03		6.0090E+00
			84.00		554.67E-03		6.0090E+00
			85.00		551.12E-03		6.0150E+00
			86.00		548.95E-03		6.0060E+00
			87.00		545.91E-03		6.0120E+00
			88.00		542.42E-03		6.0120E+00
			89.00		540.42E-03		6.0120E+00
			90.00		537.92E-03		6.0120E+00
			91.00		534.70E-03		6.0090E+00
			92.00		532.20E-03		6.0090E+00
			93.00		529.71E-03		6.0090E+00
			94.00		526.97E-03		6.0060E+00
			95.00		523.71E-03		6.0090E+00
			96.00		521.46E-03		6.0120E+00
			97.00		518.46E-03		6.0120E+00
			98.00		515.98E-03		6.0060E+00
			99.00		512.48E-03		6.0120E+00
			100.00		509.74E-03		6.0090E+00
			101.00		507.25E-03		6.0030E+00
			102.00		505.00E-03		6.0060E+00
			103.00		503.00E-03		6.0000E+00
			104.00		500.50E-03		6.0060E+00
			105.00		497.50E-03		6.0060E+00
			106.00		494.50E-03		6.0000E+00
			107.00		492.26E-03		6.0090E+00
			108.00		489.51E-03		6.0060E+00
			109.00		487.01E-03		6.0060E+00
			110.00		484.53E-03		6.0120E+00
			111.00		482.00E-03		6.0000E+00
			112.00		480.00E-03		6.0000E+00
			113.00		476.52E-03		6.0060E+00
			114.00		474.50E-03		6.0000E+00
			115.00		471.53E-03		6.0060E+00
			116.00		468.03E-03		6.0060E+00
			117.00		467.73E-03		5.9970E+00
			118.00		464.77E-03		6.0030E+00
			119.00		461.81E-03		6.0090E+00
			120.00		459.50E-03		6.0000E+00
			121.00		456.77E-03		6.0030E+00
			122.00		454.55E-03		6.0060E+00
			123.00		451.77E-03		6.0030E+00
			124.00		448.55E-03		6.0060E+00
			125.00		447.55E-03		6.0060E+00
			126.00		445.50E-03		6.0000E+00
			127.00		442.78E-03		6.0030E+00
			128.00		439.78E-03		6.0030E+00
			129.00		436.78E-03		6.0030E+00
			130.00		435.06E-03		6.0060E+00
			131.00		432.78E-03		6.0030E+00
			132.00		429.79E-03		6.0030E+00
			133.00		428.86E-03		6.0090E+00
			134.00		426.79E-03		6.0030E+00
			135.00		423.15E-03		6.0120E+00
			136.00		422.21E-03		5.9970E+00
			137.00		419.50E-03		6.0000E+00
			138.00		418.00E-03		6.0000E+00
			139.00		414.88E-03		6.0090E+00
			140.00		413.09E-03		6.0060E+00
			141.00		411.21E-03		5.9970E+00
			142.00		408.00E-03		6.0000E+00
			143.00		405.19E-03		6.0120E+00
			144.00		403.50E-03		6.0000E+00
			145.00		401.30E-03		6.0030E+00
			146.00		399.40E-03		5.9940E+00
			147.00		398.00E-03		6.0000E+00
			148.00		395.70E-03		5.9970E+00
			149.00		392.89E-03		5.9940E+00
			150.00		391.39E-03		5.9940E+00
			151.00		388.69E-03		5.9970E+00
			152.00		386.69E-03		5.9970E+00
			153.00		384.62E-03		6.0060E+00
			154.00		382.12E-03		6.0060E+00
			155.00		380.88E-03		5.9940E+00
			156.00		379.00E-03		6.0000E+00
			157.00		377.07E-03		5.9910E+00
			158.00		374.50E-03		6.0000E+00
			159.00		373.19E-03		5.9970E+00
			160.00		370.74E-03		5.9880E+00
			161.00		368.18E-03		5.9970E+00
			162.00		366.87E-03		5.9940E+00
			163.00		364.55E-03		5.9910E+00
			164.00		362.18E-03		5.9970E+00
			165.00		360.54E-03		5.9910E+00
			166.00		359.22E-03		5.9880E+00
			167.00		356.18E-03		5.9970E+00
			168.00		354.85E-03		5.9940E+00
			169.00		352.53E-03		5.9910E+00
			170.00		349.87E-03		5.9850E+00
			171.00		349.02E-03		5.9910E+00
			172.00		347.85E-03		5.9940E+00
			173.00		345.35E-03		5.9940E+00
			174.00		343.50E-03		6.0000E+00
			175.00		342.01E-03		5.9910E+00
			176.00		340.18E-03		5.9880E+00
			177.00		337.50E-03		6.0000E+00
			178.00		336.00E-03		6.0000E+00
			179.00		334.17E-03		5.9970E+00
			180.00		332.00E-03		5.9910E+00
			181.00		329.99E-03		5.9910E+00
			182.00		329.49E-03		5.9910E+00
			183.00		327.33E-03		5.9940E+00
			184.00		324.82E-03		5.9940E+00
			185.00		323.15E-03		5.9880E+00
			186.00		321.48E-03		5.9910E+00
			187.00		320.48E-03		5.9910E+00
			188.00		318.80E-03		5.9850E+00
			189.00		317.13E-03		5.9880E+00
			190.00		315.63E-03		5.9880E+00
			191.00		313.31E-03		5.9940E+00
			192.00		311.81E-03		5.9940E+00
			193.00		309.77E-03		5.9850E+00
			194.00		308.81E-03		5.9940E+00
			195.00		306.11E-03		5.9880E+00
			196.00		305.57E-03		5.9790E+00
			197.00		303.41E-03		5.9820E+00
			198.00		302.06E-03		5.9790E+00
			199.00		300.70E-03		5.9760E+00
			200.00		298.04E-03		5.9790E+00
			201.00		296.74E-03		5.9850E+00
			202.00		294.74E-03		5.9850E+00
			203.00		294.03E-03		5.9790E+00
			204.00		291.88E-03		5.9820E+00
			205.00		289.87E-03		5.9820E+00
			206.00		288.51E-03		5.9790E+00
			207.00		287.58E-03		5.9880E+00
			208.00		286.00E-03		5.9790E+00
			209.00		283.85E-03		5.9820E+00
			210.00		282.57E-03		5.9880E+00
			211.00		280.34E-03		5.9820E+00
			212.00		279.98E-03		5.9790E+00
			213.00		277.89E-03		5.9700E+00
			214.00		276.88E-03		5.9700E+00
			215.00		275.60E-03		5.9760E+00
			216.00		274.65E-03		5.9640E+00
			217.00		272.73E-03		5.9730E+00
			218.00		270.35E-03		5.9700E+00
			219.00		268.44E-03		5.9790E+00
			220.00		267.57E-03		5.9760E+00
			221.00		266.83E-03		5.9700E+00
			222.00		264.82E-03		5.9700E+00
			223.00		263.32E-03		5.9700E+00
			224.00		262.18E-03		5.9730E+00
			225.00		260.54E-03		5.9760E+00
			226.00		259.30E-03		5.9700E+00
			227.00		257.79E-03		5.9700E+00
			228.00		256.41E-03		5.9670E+00
			229.00		254.77E-03		5.9700E+00
			230.00		253.90E-03		5.9670E+00
			231.00		252.13E-03		5.9730E+00
			232.00		251.26E-03		5.9700E+00
			233.00		249.62E-03		5.9730E+00
			234.00		248.37E-03		5.9670E+00
			235.00		247.23E-03		5.9580E+00
			236.00		245.85E-03		5.9670E+00
			237.00		244.34E-03		5.9670E+00
			238.00		242.71E-03		5.9700E+00
			239.00		241.95E-03		5.9640E+00
			240.00		240.82E-03		5.9670E+00
			241.00		238.93E-03		5.9640E+00
			242.00		238.05E-03		5.9610E+00
			243.00		236.54E-03		5.9610E+00
			244.00		235.53E-03		5.9610E+00
			245.00		233.79E-03		5.9670E+00
			246.00		233.13E-03		5.9580E+00
			247.00		232.12E-03		5.9580E+00
			248.00		230.61E-03		5.9580E+00
			249.00		229.22E-03		5.9550E+00
			250.00		228.21E-03		5.9550E+00
			251.00		226.31E-03		5.9520E+00
			252.00		225.08E-03		5.9580E+00
			253.00		224.29E-03		5.9520E+00
			254.00		223.34E-03		5.9640E+00
			255.00		221.55E-03		5.9580E+00
			256.00		220.77E-03		5.9520E+00
			257.00		219.36E-03		5.9490E+00
			258.00		218.64E-03		5.9550E+00
			259.00		216.95E-03		5.9460E+00
			260.00		216.45E-03		5.9460E+00
			261.00		214.61E-03		5.9550E+00
			262.00		213.53E-03		5.9430E+00
			263.00		212.20E-03		5.9520E+00
			264.00		211.62E-03		5.9400E+00
			265.00		210.61E-03		5.9400E+00
			266.00		209.09E-03		5.9400E+00
			267.00		207.58E-03		5.9400E+00
			268.00		206.57E-03		5.9400E+00
			269.00		205.66E-03		5.9370E+00
			270.00		205.36E-03		5.9310E+00
			271.00		204.14E-03		5.9370E+00
			272.00		202.02E-03		5.9400E+00
			273.00		201.21E-03		5.9340E+00
			274.00		200.61E-03		5.9220E+00
			275.00		198.89E-03		5.9280E+00
			276.00		197.97E-03		5.9250E+00
			277.00		196.96E-03		5.9250E+00
			278.00		196.56E-03		5.9220E+00
			279.00		195.23E-03		5.9160E+00
			280.00		194.11E-03		5.9040E+00
			281.00		192.89E-03		5.9100E+00
			282.00		192.07E-03		5.9040E+00
			283.00		191.47E-03		5.9070E+00
			284.00		190.23E-03		5.8980E+00
			285.00		188.93E-03		5.9070E+00
			286.00		188.17E-03		5.8830E+00
			287.00		187.15E-03		5.8830E+00
			288.00		186.03E-03		5.8860E+00
			289.00		185.02E-03		5.8860E+00
			290.00		184.28E-03		5.8770E+00
			291.00		183.12E-03		5.8650E+00
			292.00		182.10E-03		5.8650E+00
			293.00		181.31E-03		5.8740E+00
			294.00		179.54E-03		5.8650E+00
			295.00		178.97E-03		5.8500E+00
			296.00		178.22E-03		5.8410E+00
			297.00		177.47E-03		5.8320E+00
			298.00		176.29E-03		5.8200E+00
			299.00		175.17E-03		5.8230E+00
			300.00		174.23E-03		5.8200E+00
		END_DATA
	END_SCAN  1
END_SCAN_DATA
