BEGIN_SCAN_DATA
	FORMAT=CC-Export V1.9                  
	FILE_CREATION_DATE=14-Sep-2022 13:17:08
	LAST_MODIFIED=14-Sep-2022 13:17:08
	BEGIN_SCAN  1
		TASK_NAME=tba PDD Profiles
		PROGRAM=WaterTankScans
		MEAS_DATE=14-Sep-2022 13:16:38
		LINAC=L2 ELEKTA VERSA
		MODALITY=X
		ISOCENTER=1000.00
		INPLANE_AXIS=Inplane
		CROSSPLANE_AXIS=Crossplane
		DEPTH_AXIS=Depth
		INPLANE_AXIS_DIR=GUN_TARGET
		CROSSPLANE_AXIS_DIR=LEFT_RIGHT
		DEPTH_AXIS_DIR=UP_DOWN
		ENERGY= 6.00
		NOMINAL_DMAX=13.00
		SSD=1000.00
		BLOCK=0
		WEDGE_ANGLE=0.00
		FIELD_INPLANE=100.00
		FIELD_CROSSPLANE=100.00
		FIELD_TYPE=RECTANGULAR
		GANTRY=0.00
		GANTRY_UPRIGHT_POSITION=0
		GANTRY_ROTATION=CW
		COLL_ANGLE=0.00
		COLL_OFFSET_INPLANE=0.00
		COLL_OFFSET_CROSSPLANE=0.00
		SCAN_DEVICE=BeamScan
		SCAN_DEVICE_SETUP=BARA_LEFT_RIGHT
		ELECTROMETER=BeamScan
		RANGE_FIELD=LOW
		RANGE_REFERENCE=LOW
		DETECTOR=THIMBLE_CHAMBER
		DETECTOR_SUBCODE=SEMIFLEX
		DETECTOR_RADIUS=2.40
		DETECTOR_NAME=PTW Semiflex 3D (Field)
		DETECTOR_SN=141799
		DETECTOR_CALIBRATION=500000000.00
		DETECTOR_IS_CALIBRATED=1
		DETECTOR_REFERENCE=THIMBLE_CHAMBER
		DETECTOR_REFERENCE_SUBCODE=SEMIFLEX
		DETECTOR_REFERENCE_RADIUS=2.40
		DETECTOR_REFERENCE_NAME=PTW Semiflex 3D (REF)
		DETECTOR_REFERENCE_SN=141800
		DETECTOR_REFERENCE_IS_CALIBRATED=0
		DETECTOR_REFERENCE_CALIBRATION=500000000.00
		DETECTOR_HV=400.0
		DETECTOR_REFERENCE_HV=400.0
		DETECTOR_ORIENTATION=HORIZONTAL
		FILTER=FFF
		SCAN_SPEED_PROFILE=0.00
		SCAN_PROF_SPEED_DEP=DEPTH
		SCAN_SPEED_PDD=20.00
		SCAN_PDD_SPEED_DEP=ENERGY
		REF_FIELD_DEPTH=0.00
		REF_FIELD_DEFINED=WATER_SURFACE
		REF_FIELD_INPLANE=100.00
		REF_FIELD_CROSSPLANE=100.00
		REF_SCAN_POSITIONS=0.00;1.00;2.00;3.00;4.00;5.00;6.00;7.00;8.00;9.00;10.00;11.00;12.00;13.00;14.00;15.00;16.00;17.00;18.00;19.00;20.00;21.00;22.00;23.00;24.00;25.00;26.00;27.00;28.00;29.00;30.00;31.00;32.00;33.00;34.00;35.00;36.00;37.00;38.00;39.00;40.00;41.00;42.00;43.00;44.00;45.00;46.00;47.00;48.00;49.00;50.00;51.00;52.00;53.00;54.00;55.00;56.00;57.00;58.00;59.00;60.00;61.00;62.00;63.00;64.00;65.00;66.00;67.00;68.00;69.00;70.00;71.00;72.00;73.00;74.00;75.00;76.00;77.00;78.00;79.00;80.00;81.00;82.00;83.00;84.00;85.00;86.00;87.00;88.00;89.00;90.00;91.00;92.00;93.00;94.00;95.00;96.00;97.00;98.00;99.00;100.00;101.00;102.00;103.00;104.00;105.00;106.00;107.00;108.00;109.00;110.00;111.00;112.00;113.00;114.00;115.00;116.00;117.00;118.00;119.00;120.00;121.00;122.00;123.00;124.00;125.00;126.00;127.00;128.00;129.00;130.00;131.00;132.00;133.00;134.00;135.00;136.00;137.00;138.00;139.00;140.00;141.00;142.00;143.00;144.00;145.00;146.00;147.00;148.00;149.00;150.00;151.00;152.00;153.00;154.00;155.00;156.00;157.00;158.00;159.00;160.00;161.00;162.00;163.00;164.00;165.00;166.00;167.00;168.00;169.00;170.00;171.00;172.00;173.00;174.00;175.00;176.00;177.00;178.00;179.00;180.00;181.00;182.00;183.00;184.00;185.00;186.00;187.00;188.00;189.00;190.00;191.00;192.00;193.00;194.00;195.00;196.00;197.00;198.00;199.00;200.00;201.00;202.00;203.00;204.00;205.00;206.00;207.00;208.00;209.00;210.00;211.00;212.00;213.00;214.00;215.00;216.00;217.00;218.00;219.00;220.00;221.00;222.00;223.00;224.00;225.00;226.00;227.00;228.00;229.00;230.00;231.00;232.00;233.00;234.00;235.00;236.00;237.00;238.00;239.00;240.00;241.00;242.00;243.00;244.00;245.00;246.00;247.00;248.00;249.00;250.00;251.00;252.00;253.00;254.00;255.00;256.00;257.00;258.00;259.00;260.00;261.00;262.00;263.00;264.00;265.00;266.00;267.00;268.00;269.00;270.00;271.00;272.00;273.00;274.00;275.00;276.00;277.00;278.00;279.00;280.00;281.00;282.00;283.00;284.00;285.00;286.00;287.00;288.00;289.00;290.00;291.00;292.00;293.00;294.00;295.00;296.00;297.00;298.00;
		SCAN_CURVETYPE=PDD
		SCAN_OFFAXIS_INPLANE=0.00
		SCAN_OFFAXIS_CROSSPLANE=0.00
		SCAN_ANGLE=0.00
		SCAN_DIAGONAL=NOT_DIAGONAL
		SCAN_DIRECTION=NEGATIVE
		MEAS_MEDIUM=WATER
		MEAS_PRESET=MEAS_CONTINUOUS_REFERENCE_SCAN
		MEAS_TIME=0.050
		MEAS_UNIT=A.U.
		PRESSURE=1013.25
		TEMPERATURE=20.00
		NORM_TEMPERATURE=20.00
		CORRECTION_FACTOR=1.0000
		EXPECTED_MAX_DOSE_RATE=3.00
		BEGIN_DATA
			0.00		704.66E-03		7.2120E+00
			1.00		754.50E-03		7.1610E+00
			2.00		842.70E-03		7.2090E+00
			3.00		964.89E-03		7.2630E+00
			4.00		1.0686E+00		7.2570E+00
			5.00		1.1451E+00		7.2180E+00
			6.00		1.2026E+00		7.2720E+00
			7.00		1.2544E+00		7.2750E+00
			8.00		1.2982E+00		7.2240E+00
			9.00		1.3253E+00		7.2480E+00
			10.00		1.3499E+00		7.2540E+00
			11.00		1.3667E+00		7.2240E+00
			12.00		1.3767E+00		7.2240E+00
			13.00		1.3888E+00		7.2600E+00
			14.00		1.3978E+00		7.2780E+00
			15.00		1.4027E+00		7.2780E+00
			16.00		1.4078E+00		7.2540E+00
			17.00		1.4092E+00		7.2360E+00
			18.00		1.4102E+00		7.2990E+00
			19.00		1.4111E+00		7.3200E+00
			20.00		1.4092E+00		7.2870E+00
			21.00		1.4041E+00		7.2450E+00
			22.00		1.4007E+00		7.2840E+00
			23.00		1.3992E+00		7.2750E+00
			24.00		1.3975E+00		7.2600E+00
			25.00		1.3918E+00		7.2120E+00
			26.00		1.3852E+00		7.1880E+00
			27.00		1.3761E+00		7.2180E+00
			28.00		1.3720E+00		7.2180E+00
			29.00		1.3668E+00		7.2870E+00
			30.00		1.3632E+00		7.2930E+00
			31.00		1.3559E+00		7.2570E+00
			32.00		1.3495E+00		7.2360E+00
			33.00		1.3454E+00		7.2180E+00
			34.00		1.3382E+00		7.2030E+00
			35.00		1.3311E+00		7.2300E+00
			36.00		1.3277E+00		7.2600E+00
			37.00		1.3197E+00		7.2450E+00
			38.00		1.3154E+00		7.2870E+00
			39.00		1.3091E+00		7.2900E+00
			40.00		1.3024E+00		7.2330E+00
			41.00		1.2945E+00		7.2930E+00
			42.00		1.2922E+00		7.3500E+00
			43.00		1.2857E+00		7.3200E+00
			44.00		1.2782E+00		7.3320E+00
			45.00		1.2716E+00		7.3350E+00
			46.00		1.2689E+00		7.2300E+00
			47.00		1.2624E+00		7.1790E+00
			48.00		1.2548E+00		7.2060E+00
			49.00		1.2467E+00		7.2000E+00
			50.00		1.2384E+00		7.2120E+00
			51.00		1.2370E+00		7.2150E+00
			52.00		1.2291E+00		7.1880E+00
			53.00		1.2221E+00		7.1730E+00
			54.00		1.2173E+00		7.2630E+00
			55.00		1.2108E+00		7.2450E+00
			56.00		1.2057E+00		7.2210E+00
			57.00		1.2000E+00		7.2750E+00
			58.00		1.1932E+00		7.2660E+00
			59.00		1.1859E+00		7.2450E+00
			60.00		1.1829E+00		7.2660E+00
			61.00		1.1745E+00		7.3050E+00
			62.00		1.1714E+00		7.2810E+00
			63.00		1.1643E+00		7.3380E+00
			64.00		1.1620E+00		7.3320E+00
			65.00		1.1551E+00		7.2930E+00
			66.00		1.1469E+00		7.2690E+00
			67.00		1.1420E+00		7.2480E+00
			68.00		1.1367E+00		7.1970E+00
			69.00		1.1312E+00		7.2000E+00
			70.00		1.1260E+00		7.1880E+00
			71.00		1.1192E+00		7.1460E+00
			72.00		1.1088E+00		7.1670E+00
			73.00		1.1069E+00		7.2420E+00
			74.00		1.1024E+00		7.2690E+00
			75.00		1.0941E+00		7.2990E+00
			76.00		1.0918E+00		7.2870E+00
			77.00		1.0894E+00		7.1850E+00
			78.00		1.0819E+00		7.1820E+00
			79.00		1.0758E+00		7.2780E+00
			80.00		1.0675E+00		7.2870E+00
			81.00		1.0611E+00		7.2660E+00
			82.00		1.0586E+00		7.2690E+00
			83.00		1.0548E+00		7.2840E+00
			84.00		1.0486E+00		7.1550E+00
			85.00		1.0395E+00		7.1430E+00
			86.00		1.0348E+00		7.2390E+00
			87.00		1.0306E+00		7.2660E+00
			88.00		1.0238E+00		7.3110E+00
			89.00		1.0201E+00		7.3230E+00
			90.00		1.0148E+00		7.2960E+00
			91.00		1.0094E+00		7.3530E+00
			92.00		1.0045E+00		7.3080E+00
			93.00		999.59E-03		7.2870E+00
			94.00		995.87E-03		7.2690E+00
			95.00		989.58E-03		7.2000E+00
			96.00		984.18E-03		7.2060E+00
			97.00		977.69E-03		7.2600E+00
			98.00		974.42E-03		7.2720E+00
			99.00		969.12E-03		7.1880E+00
			100.00		961.91E-03		7.1670E+00
			101.00		957.52E-03		7.2030E+00
			102.00		954.96E-03		7.1940E+00
			103.00		946.89E-03		7.2300E+00
			104.00		943.23E-03		7.2930E+00
			105.00		937.96E-03		7.3020E+00
			106.00		933.33E-03		7.2000E+00
			107.00		930.06E-03		7.2060E+00
			108.00		925.02E-03		7.2420E+00
			109.00		917.39E-03		7.2630E+00
			110.00		911.83E-03		7.2810E+00
			111.00		908.15E-03		7.2840E+00
			112.00		905.95E-03		7.3050E+00
			113.00		899.59E-03		7.2900E+00
			114.00		894.89E-03		7.2210E+00
			115.00		889.81E-03		7.2150E+00
			116.00		883.77E-03		7.2270E+00
			117.00		880.17E-03		7.2600E+00
			118.00		875.00E-03		7.2480E+00
			119.00		872.47E-03		7.2690E+00
			120.00		867.38E-03		7.2840E+00
			121.00		863.24E-03		7.3050E+00
			122.00		856.73E-03		7.3080E+00
			123.00		854.12E-03		7.2390E+00
			124.00		848.21E-03		7.1940E+00
			125.00		842.92E-03		7.2000E+00
			126.00		837.75E-03		7.2480E+00
			127.00		834.43E-03		7.2660E+00
			128.00		831.88E-03		7.2450E+00
			129.00		825.49E-03		7.2030E+00
			130.00		821.53E-03		7.2450E+00
			131.00		816.58E-03		7.3110E+00
			132.00		812.99E-03		7.2990E+00
			133.00		807.90E-03		7.2930E+00
			134.00		802.23E-03		7.2510E+00
			135.00		799.59E-03		7.3050E+00
			136.00		797.30E-03		7.3260E+00
			137.00		794.13E-03		7.2570E+00
			138.00		787.75E-03		7.1520E+00
			139.00		782.55E-03		7.1190E+00
			140.00		778.33E-03		7.2000E+00
			141.00		774.50E-03		7.2240E+00
			142.00		770.12E-03		7.2300E+00
			143.00		766.07E-03		7.2330E+00
			144.00		761.45E-03		7.2690E+00
			145.00		757.54E-03		7.2630E+00
			146.00		754.02E-03		7.2690E+00
			147.00		751.96E-03		7.2810E+00
			148.00		747.92E-03		7.2120E+00
			149.00		743.12E-03		7.1940E+00
			150.00		736.58E-03		7.2660E+00
			151.00		733.66E-03		7.2990E+00
			152.00		730.96E-03		7.2480E+00
			153.00		727.05E-03		7.2540E+00
			154.00		722.57E-03		7.2450E+00
			155.00		718.63E-03		7.2930E+00
			156.00		716.75E-03		7.3080E+00
			157.00		710.49E-03		7.3470E+00
			158.00		706.77E-03		7.3560E+00
			159.00		702.95E-03		7.3320E+00
			160.00		700.21E-03		7.2750E+00
			161.00		696.78E-03		7.1730E+00
			162.00		692.73E-03		7.1370E+00
			163.00		688.50E-03		7.1460E+00
			164.00		683.75E-03		7.1430E+00
			165.00		680.62E-03		7.1670E+00
			166.00		676.63E-03		7.2270E+00
			167.00		672.58E-03		7.2750E+00
			168.00		671.74E-03		7.2930E+00
			169.00		667.90E-03		7.2900E+00
			170.00		663.50E-03		7.2660E+00
			171.00		659.80E-03		7.2840E+00
			172.00		657.34E-03		7.2930E+00
			173.00		653.81E-03		7.3140E+00
			174.00		649.04E-03		7.3170E+00
			175.00		646.50E-03		7.2900E+00
			176.00		644.29E-03		7.3290E+00
			177.00		641.66E-03		7.3170E+00
			178.00		637.19E-03		7.2600E+00
			179.00		634.07E-03		7.2390E+00
			180.00		631.08E-03		7.2210E+00
			181.00		626.36E-03		7.1940E+00
			182.00		621.54E-03		7.1580E+00
			183.00		618.63E-03		7.1820E+00
			184.00		615.61E-03		7.1880E+00
			185.00		610.46E-03		7.1700E+00
			186.00		608.35E-03		7.1850E+00
			187.00		606.22E-03		7.2300E+00
			188.00		602.89E-03		7.2750E+00
			189.00		600.49E-03		7.3140E+00
			190.00		597.95E-03		7.3200E+00
			191.00		593.84E-03		7.3050E+00
			192.00		590.91E-03		7.2600E+00
			193.00		587.31E-03		7.2330E+00
			194.00		582.92E-03		7.2360E+00
			195.00		580.67E-03		7.2330E+00
			196.00		577.83E-03		7.2270E+00
			197.00		574.56E-03		7.2420E+00
			198.00		572.31E-03		7.2810E+00
			199.00		570.78E-03		7.2690E+00
			200.00		566.93E-03		7.2390E+00
			201.00		562.73E-03		7.1970E+00
			202.00		559.62E-03		7.2210E+00
			203.00		555.60E-03		7.2030E+00
			204.00		551.78E-03		7.2420E+00
			205.00		549.79E-03		7.2900E+00
			206.00		548.87E-03		7.2750E+00
			207.00		546.96E-03		7.2510E+00
			208.00		543.08E-03		7.2420E+00
			209.00		540.25E-03		7.2300E+00
			210.00		537.98E-03		7.2270E+00
			211.00		534.97E-03		7.2060E+00
			212.00		530.05E-03		7.1880E+00
			213.00		526.29E-03		7.1880E+00
			214.00		525.81E-03		7.2060E+00
			215.00		521.74E-03		7.2450E+00
			216.00		520.10E-03		7.3140E+00
			217.00		516.99E-03		7.3290E+00
			218.00		514.15E-03		7.3170E+00
			219.00		511.07E-03		7.3200E+00
			220.00		510.31E-03		7.2720E+00
			221.00		508.68E-03		7.2540E+00
			222.00		505.83E-03		7.2060E+00
			223.00		501.68E-03		7.1580E+00
			224.00		496.65E-03		7.1580E+00
			225.00		494.32E-03		7.1250E+00
			226.00		491.40E-03		7.1550E+00
			227.00		490.20E-03		7.1910E+00
			228.00		487.14E-03		7.2300E+00
			229.00		485.32E-03		7.2570E+00
			230.00		482.83E-03		7.2510E+00
			231.00		479.57E-03		7.2690E+00
			232.00		477.37E-03		7.2900E+00
			233.00		475.58E-03		7.3110E+00
			234.00		472.36E-03		7.2720E+00
			235.00		468.53E-03		7.2930E+00
			236.00		467.93E-03		7.2960E+00
			237.00		465.67E-03		7.2540E+00
			238.00		462.18E-03		7.2180E+00
			239.00		460.26E-03		7.2090E+00
			240.00		456.78E-03		7.1850E+00
			241.00		454.74E-03		7.1580E+00
			242.00		452.64E-03		7.1580E+00
			243.00		449.34E-03		7.2240E+00
			244.00		447.92E-03		7.2870E+00
			245.00		446.49E-03		7.3170E+00
			246.00		444.35E-03		7.2780E+00
			247.00		442.32E-03		7.2300E+00
			248.00		438.60E-03		7.1820E+00
			249.00		435.80E-03		7.1730E+00
			250.00		433.31E-03		7.2420E+00
			251.00		431.75E-03		7.2750E+00
			252.00		429.34E-03		7.2390E+00
			253.00		427.15E-03		7.2480E+00
			254.00		424.73E-03		7.2540E+00
			255.00		423.22E-03		7.2870E+00
			256.00		421.03E-03		7.2750E+00
			257.00		418.08E-03		7.2690E+00
			258.00		416.02E-03		7.3050E+00
			259.00		414.64E-03		7.2930E+00
			260.00		412.87E-03		7.2480E+00
			261.00		410.32E-03		7.2390E+00
			262.00		407.47E-03		7.2270E+00
			263.00		405.07E-03		7.2180E+00
			264.00		404.02E-03		7.2360E+00
			265.00		402.58E-03		7.2210E+00
			266.00		400.67E-03		7.2150E+00
			267.00		397.33E-03		7.2030E+00
			268.00		395.21E-03		7.2060E+00
			269.00		392.67E-03		7.2060E+00
			270.00		390.26E-03		7.2390E+00
			271.00		388.42E-03		7.2510E+00
			272.00		387.66E-03		7.2420E+00
			273.00		386.07E-03		7.2780E+00
			274.00		384.53E-03		7.3110E+00
			275.00		382.45E-03		7.2990E+00
			276.00		380.28E-03		7.3170E+00
			277.00		378.06E-03		7.3170E+00
			278.00		376.20E-03		7.2240E+00
			279.00		372.54E-03		7.2000E+00
			280.00		370.95E-03		7.2180E+00
			281.00		370.92E-03		7.2000E+00
			282.00		367.84E-03		7.2210E+00
			283.00		365.91E-03		7.2240E+00
			284.00		364.44E-03		7.1970E+00
			285.00		361.87E-03		7.2060E+00
			286.00		359.98E-03		7.1970E+00
			287.00		358.63E-03		7.2150E+00
			288.00		356.71E-03		7.2480E+00
			289.00		355.42E-03		7.2750E+00
			290.00		353.29E-03		7.2840E+00
			291.00		351.53E-03		7.2720E+00
			292.00		349.77E-03		7.2510E+00
			293.00		347.53E-03		7.2330E+00
			294.00		346.36E-03		7.2540E+00
			295.00		344.99E-03		7.2690E+00
			296.00		342.69E-03		7.2660E+00
			297.00		339.88E-03		7.2510E+00
			298.00		339.20E-03		7.2240E+00
		END_DATA
	END_SCAN  1
END_SCAN_DATA
