BEGIN_SCAN_DATA
	FORMAT=CC-Export V1.9                  
	FILE_CREATION_DATE=20-May-2016 11:00:36
	LAST_MODIFIED=20-May-2016 11:00:36
	BEGIN_SCAN  1
		TASK_NAME=tba PDD Profiles
		PROGRAM=tbaScan
		COMMENT=QA measurement with MP3
		MEAS_DATE=20-May-2016 10:56:38
		LINAC=LINAC 1 ELEKTA 
		MODALITY=X
		ISOCENTER=1000.00
		INPLANE_AXIS=Inplane
		CROSSPLANE_AXIS=Crossplane
		DEPTH_AXIS=Depth
		INPLANE_AXIS_DIR=TARGET_GUN
		CROSSPLANE_AXIS_DIR=LEFT_RIGHT
		DEPTH_AXIS_DIR=UP_DOWN
		ENERGY=6.00
		NOMINAL_DMAX=15.00
		SSD=1000.00
		SCD=450.00
		BLOCK=0
		WEDGE_ANGLE=0.00
		FIELD_INPLANE=100.00
		FIELD_CROSSPLANE=100.00
		FIELD_TYPE=RECTANGULAR
		GANTRY=0.00
		GANTRY_UPRIGHT_POSITION=0
		GANTRY_ROTATION=CW
		COLL_ANGLE=0.00
		COLL_OFFSET_INPLANE=0.00
		COLL_OFFSET_CROSSPLANE=0.00
		SCAN_DEVICE=MP3
		SCAN_DEVICE_SETUP=BARA_LEFT_RIGHT
		ELECTROMETER=TANDEM
		RANGE_FIELD=AUTO
		RANGE_REFERENCE=AUTO
		DETECTOR=THIMBLE_CHAMBER
		DETECTOR_RADIUS=3.05
		DETECTOR_NAME=PTW Demo Farmer
		DETECTOR_SN=Demo
		DETECTOR_CALIBRATION=50000000.00
		DETECTOR_IS_CALIBRATED=1
		DETECTOR_REFERENCE_IS_CALIBRATED=0
		DETECTOR_REFERENCE_CALIBRATION=300000000.00
		DETECTOR_HV=400.0
		DETECTOR_REFERENCE_HV=400.0
		REF_FIELD_DEPTH=0.00
		REF_FIELD_DEFINED=ISOCENTER
		REF_FIELD_INPLANE=300.00
		REF_FIELD_CROSSPLANE=300.00
		REF_SCAN_POSITIONS=-5.00;-4.00;-3.00;-2.00;-1.00;0.00;1.00;2.00;3.00;4.00;5.00;6.00;7.00;8.00;9.00;10.00;11.00;12.00;13.00;14.00;15.00;16.00;17.00;18.00;19.00;20.00;21.00;22.00;23.00;24.00;25.00;26.00;27.00;28.00;29.00;30.00;31.00;32.00;33.00;34.00;35.00;36.00;37.00;38.00;39.00;40.00;41.00;42.00;43.00;44.00;45.00;46.00;47.00;48.00;49.00;50.00;52.00;54.00;56.00;58.00;60.00;62.00;64.00;66.00;68.00;70.00;72.00;74.00;76.00;78.00;80.00;82.00;84.00;86.00;88.00;90.00;92.00;94.00;96.00;98.00;100.00;102.00;104.00;106.00;108.00;110.00;112.00;114.00;116.00;118.00;120.00;122.00;124.00;126.00;128.00;130.00;132.00;134.00;136.00;138.00;140.00;142.00;144.00;146.00;148.00;150.00;152.00;154.00;156.00;158.00;160.00;162.00;164.00;166.00;168.00;170.00;172.00;174.00;176.00;178.00;180.00;182.00;184.00;186.00;188.00;190.00;192.00;194.00;196.00;198.00;200.00;202.00;204.00;206.00;208.00;210.00;212.00;214.00;216.00;218.00;220.00;222.00;224.00;226.00;228.00;230.00;232.00;234.00;236.00;238.00;240.00;242.00;244.00;246.00;248.00;250.00;252.00;254.00;256.00;258.00;260.00;262.00;264.00;266.00;268.00;270.00;272.00;274.00;276.00;278.00;280.00;282.00;284.00;286.00;288.00;290.00;292.00;294.00;296.00;298.00;300.00;
		SCAN_CURVETYPE=PDD
		SCAN_OFFAXIS_INPLANE=0.00
		SCAN_OFFAXIS_CROSSPLANE=0.00
		SCAN_ANGLE=0.00
		SCAN_DIAGONAL=NOT_DIAGONAL
		SCAN_DIRECTION=NEGATIVE
		MEAS_MEDIUM=WATER
		MEAS_PRESET=REFERENCE_DOSEMETER
		MEAS_TIME=0.100
		MEAS_UNIT=A.U.
		SCAN_SPEEDS=20.00; 5.00;40.00; 5.00;100.00; 5.00;400.00; 5.00;
		DELAY_TIMES=20.00; 0.200;150.00; 0.200;400.00; 0.200;
		PRESSURE=1013.20
		TEMPERATURE=20.00
		NORM_TEMPERATURE=20.00
		CORRECTION_FACTOR=1.0000
		EXPECTED_MAX_DOSE_RATE=3.00
		BEGIN_DATA
			0.00		138.28E-03		3.0440E+00
			1.00		145.13E-03		3.0512E+00
			2.00		162.34E-03		3.0530E+00
			3.00		192.77E-03		3.0458E+00
			4.00		216.10E-03		3.0530E+00
			5.00		233.75E-03		3.0548E+00
			6.00		248.13E-03		3.0494E+00
			7.00		258.37E-03		3.0458E+00
			8.00		265.84E-03		3.0494E+00
			9.00		271.26E-03		3.0548E+00
			10.00		276.40E-03		3.0404E+00
			11.00		278.93E-03		3.0440E+00
			12.00		281.69E-03		3.0440E+00
			13.00		282.90E-03		3.0458E+00
			14.00		284.18E-03		3.0458E+00
			15.00		284.62E-03		3.0422E+00
			16.00		284.78E-03		3.0404E+00
			17.00		284.39E-03		3.0404E+00
			18.00		283.33E-03		3.0422E+00
			19.00		282.58E-03		3.0386E+00
			20.00		281.75E-03		3.0476E+00
			21.00		280.93E-03		3.0458E+00
			22.00		280.41E-03		3.0386E+00
			23.00		278.96E-03		3.0458E+00
			24.00		277.15E-03		3.0386E+00
			25.00		276.89E-03		3.0458E+00
			26.00		275.02E-03		3.0458E+00
			27.00		274.10E-03		3.0494E+00
			28.00		272.92E-03		3.0440E+00
			29.00		271.28E-03		3.0458E+00
			30.00		270.39E-03		3.0458E+00
			31.00		269.00E-03		3.0404E+00
			32.00		267.81E-03		3.0494E+00
			33.00		267.06E-03		3.0512E+00
			34.00		265.19E-03		3.0512E+00
			35.00		264.25E-03		3.0530E+00
			36.00		263.32E-03		3.0512E+00
			37.00		262.21E-03		3.0458E+00
			38.00		260.72E-03		3.0494E+00
			39.00		259.70E-03		3.0476E+00
			40.00		258.31E-03		3.0512E+00
			41.00		257.20E-03		3.0422E+00
			42.00		256.25E-03		3.0476E+00
			43.00		254.87E-03		3.0476E+00
			44.00		253.64E-03		3.0458E+00
			45.00		253.06E-03		3.0422E+00
			46.00		251.58E-03		3.0458E+00
			47.00		250.44E-03		3.0440E+00
			48.00		249.31E-03		3.0422E+00
			49.00		248.92E-03		3.0458E+00
			50.00		246.45E-03		3.0458E+00
			52.00		244.67E-03		3.0422E+00
			54.00		242.81E-03		3.0458E+00
			56.00		239.84E-03		3.0422E+00
			58.00		237.39E-03		3.0458E+00
			60.00		235.32E-03		3.0458E+00
			62.00		233.27E-03		3.0404E+00
			64.00		230.67E-03		3.0422E+00
			66.00		228.37E-03		3.0440E+00
			68.00		225.87E-03		3.0458E+00
			70.00		223.80E-03		3.0404E+00
			72.00		221.27E-03		3.0548E+00
			74.00		219.46E-03		3.0404E+00
			76.00		217.43E-03		3.0440E+00
			78.00		214.78E-03		3.0494E+00
			80.00		213.03E-03		3.0476E+00
			82.00		210.55E-03		3.0422E+00
			84.00		208.43E-03		3.0458E+00
			86.00		206.14E-03		3.0476E+00
			88.00		204.51E-03		3.0440E+00
			90.00		201.87E-03		3.0422E+00
			92.00		200.08E-03		3.0440E+00
			94.00		198.05E-03		3.0404E+00
			96.00		195.82E-03		3.0458E+00
			98.00		193.62E-03		3.0494E+00
			100.00		192.29E-03		3.0440E+00
			102.00		189.93E-03		3.0440E+00
			104.00		188.07E-03		3.0422E+00
			106.00		186.13E-03		3.0367E+00
			108.00		184.52E-03		3.0422E+00
			110.00		182.18E-03		3.0367E+00
			112.00		180.58E-03		3.0404E+00
			114.00		178.30E-03		3.0422E+00
			116.00		176.12E-03		3.0458E+00
			118.00		174.57E-03		3.0367E+00
			120.00		172.80E-03		3.0349E+00
			122.00		171.20E-03		3.0422E+00
			124.00		169.24E-03		3.0367E+00
			126.00		166.86E-03		3.0404E+00
			128.00		165.58E-03		3.0349E+00
			130.00		163.42E-03		3.0476E+00
			132.00		162.13E-03		3.0422E+00
			134.00		160.36E-03		3.0422E+00
			136.00		158.57E-03		3.0367E+00
			138.00		156.98E-03		3.0349E+00
			140.00		155.61E-03		3.0386E+00
			142.00		153.72E-03		3.0367E+00
			144.00		152.14E-03		3.0349E+00
			146.00		149.97E-03		3.0367E+00
			148.00		148.63E-03		3.0440E+00
			150.00		147.13E-03		3.0404E+00
			152.00		145.73E-03		3.0386E+00
			154.00		143.86E-03		3.0386E+00
			156.00		142.18E-03		3.0386E+00
			158.00		141.25E-03		3.0331E+00
			160.00		139.51E-03		3.0386E+00
			162.00		137.67E-03		3.0422E+00
			164.00		136.22E-03		3.0349E+00
			166.00		135.25E-03		3.0367E+00
			168.00		133.53E-03		3.0422E+00
			170.00		132.01E-03		3.0386E+00
			172.00		130.51E-03		3.0367E+00
			174.00		128.92E-03		3.0440E+00
			176.00		127.57E-03		3.0386E+00
			178.00		126.11E-03		3.0404E+00
			180.00		125.00E-03		3.0386E+00
			182.00		123.67E-03		3.0349E+00
			184.00		122.22E-03		3.0440E+00
			186.00		121.27E-03		3.0331E+00
			188.00		119.44E-03		3.0367E+00
			190.00		118.10E-03		3.0331E+00
			192.00		117.42E-03		3.0277E+00
			194.00		115.95E-03		3.0349E+00
			196.00		114.74E-03		3.0331E+00
			198.00		113.72E-03		3.0259E+00
			200.00		112.10E-03		3.0295E+00
			202.00		110.98E-03		3.0331E+00
			204.00		109.83E-03		3.0404E+00
			206.00		108.54E-03		3.0295E+00
			208.00		107.32E-03		3.0331E+00
			210.00		106.36E-03		3.0295E+00
			212.00		105.20E-03		3.0259E+00
			214.00		103.93E-03		3.0367E+00
			216.00		102.57E-03		3.0331E+00
			218.00		101.88E-03		3.0241E+00
			220.00		100.63E-03		3.0349E+00
			222.00		99.565E-03		3.0313E+00
			224.00		98.674E-03		3.0313E+00
			226.00		97.486E-03		3.0313E+00
			228.00		96.314E-03		3.0277E+00
			230.00		95.224E-03		3.0277E+00
			232.00		94.263E-03		3.0331E+00
			234.00		93.175E-03		3.0331E+00
			236.00		92.196E-03		3.0295E+00
			238.00		91.315E-03		3.0259E+00
			240.00		90.323E-03		3.0259E+00
			242.00		89.219E-03		3.0331E+00
			244.00		88.340E-03		3.0259E+00
			246.00		87.443E-03		3.0295E+00
			248.00		86.651E-03		3.0295E+00
			250.00		85.615E-03		3.0241E+00
			252.00		84.771E-03		3.0259E+00
			254.00		83.929E-03		3.0205E+00
			256.00		82.837E-03		3.0205E+00
			258.00		81.845E-03		3.0241E+00
			260.00		81.105E-03		3.0295E+00
			262.00		80.063E-03		3.0277E+00
			264.00		79.568E-03		3.0277E+00
			266.00		78.525E-03		3.0259E+00
			268.00		77.685E-03		3.0277E+00
			270.00		76.923E-03		3.0187E+00
			272.00		76.119E-03		3.0151E+00
			274.00		75.333E-03		3.0187E+00
			276.00		74.339E-03		3.0187E+00
			278.00		73.544E-03		3.0187E+00
			280.00		73.178E-03		3.0133E+00
			282.00		72.096E-03		3.0169E+00
			284.00		71.301E-03		3.0169E+00
			286.00		70.731E-03		3.0115E+00
			288.00		69.793E-03		3.0133E+00
			290.00		69.154E-03		3.0151E+00
			292.00		68.394E-03		3.0223E+00
			294.00		67.541E-03		3.0205E+00
			296.00		66.826E-03		3.0169E+00
			298.00		66.051E-03		3.0205E+00
			300.00		65.672E-03		3.0151E+00
		END_DATA
	END_SCAN  1
	
END_SCAN_DATA
