BEGIN_SCAN_DATA
	FORMAT=CC-Export V1.9                  
	FILE_CREATION_DATE=12-Oct-2022 11:56:53
	LAST_MODIFIED=12-Oct-2022 11:56:53
	BEGIN_SCAN  1
		TASK_NAME=tba PDD Profiles
		PROGRAM=WaterTankScans
		MEAS_DATE=12-Oct-2022 11:56:23
		LINAC=L2 ELEKTA VERSA
		MODALITY=X
		ISOCENTER=1000.00
		INPLANE_AXIS=Inplane
		CROSSPLANE_AXIS=Crossplane
		DEPTH_AXIS=Depth
		INPLANE_AXIS_DIR=GUN_TARGET
		CROSSPLANE_AXIS_DIR=LEFT_RIGHT
		DEPTH_AXIS_DIR=UP_DOWN
		ENERGY=6.00
		NOMINAL_DMAX=13.00
		SSD=1000.00
		BLOCK=0
		WEDGE_ANGLE=0.00
		FIELD_INPLANE=100.00
		FIELD_CROSSPLANE=100.00
		FIELD_TYPE=RECTANGULAR
		GANTRY=0.00
		GANTRY_UPRIGHT_POSITION=0
		GANTRY_ROTATION=CW
		COLL_ANGLE=0.00
		COLL_OFFSET_INPLANE=0.00
		COLL_OFFSET_CROSSPLANE=0.00
		SCAN_DEVICE=BeamScan
		SCAN_DEVICE_SETUP=BARA_LEFT_RIGHT
		ELECTROMETER=BeamScan
		RANGE_FIELD=LOW
		RANGE_REFERENCE=LOW
		DETECTOR=THIMBLE_CHAMBER
		DETECTOR_SUBCODE=SEMIFLEX
		DETECTOR_RADIUS=2.40
		DETECTOR_NAME=PTW Semiflex 3D (Field)
		DETECTOR_SN=141799
		DETECTOR_CALIBRATION=500000000.00
		DETECTOR_IS_CALIBRATED=1
		DETECTOR_REFERENCE=THIMBLE_CHAMBER
		DETECTOR_REFERENCE_SUBCODE=SEMIFLEX
		DETECTOR_REFERENCE_RADIUS=2.40
		DETECTOR_REFERENCE_NAME=PTW Semiflex 3D (REF)
		DETECTOR_REFERENCE_SN=141800
		DETECTOR_REFERENCE_IS_CALIBRATED=0
		DETECTOR_REFERENCE_CALIBRATION=500000000.00
		DETECTOR_HV=400.0
		DETECTOR_REFERENCE_HV=400.0
		DETECTOR_ORIENTATION=HORIZONTAL
		FILTER=FFF
		SCAN_SPEED_PROFILE=0.00
		SCAN_PROF_SPEED_DEP=DEPTH
		SCAN_SPEED_PDD=20.00
		SCAN_PDD_SPEED_DEP=ENERGY
		REF_FIELD_DEPTH=0.00
		REF_FIELD_DEFINED=WATER_SURFACE
		REF_FIELD_INPLANE=100.00
		REF_FIELD_CROSSPLANE=100.00
		REF_SCAN_POSITIONS=0.00;1.00;2.00;3.00;4.00;5.00;6.00;7.00;8.00;9.00;10.00;11.00;12.00;13.00;14.00;15.00;16.00;17.00;18.00;19.00;20.00;21.00;22.00;23.00;24.00;25.00;26.00;27.00;28.00;29.00;30.00;31.00;32.00;33.00;34.00;35.00;36.00;37.00;38.00;39.00;40.00;41.00;42.00;43.00;44.00;45.00;46.00;47.00;48.00;49.00;50.00;51.00;52.00;53.00;54.00;55.00;56.00;57.00;58.00;59.00;60.00;61.00;62.00;63.00;64.00;65.00;66.00;67.00;68.00;69.00;70.00;71.00;72.00;73.00;74.00;75.00;76.00;77.00;78.00;79.00;80.00;81.00;82.00;83.00;84.00;85.00;86.00;87.00;88.00;89.00;90.00;91.00;92.00;93.00;94.00;95.00;96.00;97.00;98.00;99.00;100.00;101.00;102.00;103.00;104.00;105.00;106.00;107.00;108.00;109.00;110.00;111.00;112.00;113.00;114.00;115.00;116.00;117.00;118.00;119.00;120.00;121.00;122.00;123.00;124.00;125.00;126.00;127.00;128.00;129.00;130.00;131.00;132.00;133.00;134.00;135.00;136.00;137.00;138.00;139.00;140.00;141.00;142.00;143.00;144.00;145.00;146.00;147.00;148.00;149.00;150.00;151.00;152.00;153.00;154.00;155.00;156.00;157.00;158.00;159.00;160.00;161.00;162.00;163.00;164.00;165.00;166.00;167.00;168.00;169.00;170.00;171.00;172.00;173.00;174.00;175.00;176.00;177.00;178.00;179.00;180.00;181.00;182.00;183.00;184.00;185.00;186.00;187.00;188.00;189.00;190.00;191.00;192.00;193.00;194.00;195.00;196.00;197.00;198.00;199.00;200.00;201.00;202.00;203.00;204.00;205.00;206.00;207.00;208.00;209.00;210.00;211.00;212.00;213.00;214.00;215.00;216.00;217.00;218.00;219.00;220.00;221.00;222.00;223.00;224.00;225.00;226.00;227.00;228.00;229.00;230.00;231.00;232.00;233.00;234.00;235.00;236.00;237.00;238.00;239.00;240.00;241.00;242.00;243.00;244.00;245.00;246.00;247.00;248.00;249.00;250.00;251.00;252.00;253.00;254.00;255.00;256.00;257.00;258.00;259.00;260.00;261.00;262.00;263.00;264.00;265.00;266.00;267.00;268.00;269.00;270.00;271.00;272.00;273.00;274.00;275.00;276.00;277.00;278.00;279.00;280.00;281.00;282.00;283.00;284.00;285.00;286.00;287.00;288.00;289.00;290.00;291.00;292.00;293.00;294.00;295.00;296.00;297.00;298.00;
		SCAN_CURVETYPE=PDD
		SCAN_OFFAXIS_INPLANE=0.00
		SCAN_OFFAXIS_CROSSPLANE=0.00
		SCAN_ANGLE=0.00
		SCAN_DIAGONAL=NOT_DIAGONAL
		SCAN_DIRECTION=NEGATIVE
		MEAS_MEDIUM=WATER
		MEAS_PRESET=MEAS_CONTINUOUS_REFERENCE_SCAN
		MEAS_TIME=0.050
		MEAS_UNIT=A.U.
		PRESSURE=1013.25
		TEMPERATURE=20.00
		NORM_TEMPERATURE=20.00
		CORRECTION_FACTOR=1.0000
		EXPECTED_MAX_DOSE_RATE=3.00
		BEGIN_DATA
			0.00		886.81E-03		6.0960E+00
			1.00		942.89E-03		6.0930E+00
			2.00		1.0455E+00		6.0720E+00
			3.00		1.1945E+00		6.0630E+00
			4.00		1.3254E+00		6.0750E+00
			5.00		1.4271E+00		6.0690E+00
			6.00		1.5007E+00		6.0750E+00
			7.00		1.5557E+00		6.0840E+00
			8.00		1.6069E+00		6.0750E+00
			9.00		1.6408E+00		6.0810E+00
			10.00		1.6708E+00		6.0690E+00
			11.00		1.6907E+00		6.0720E+00
			12.00		1.7055E+00		6.0810E+00
			13.00		1.7167E+00		6.0780E+00
			14.00		1.7271E+00		6.0690E+00
			15.00		1.7304E+00		6.0750E+00
			16.00		1.7373E+00		6.0750E+00
			17.00		1.7399E+00		6.0780E+00
			18.00		1.7401E+00		6.0720E+00
			19.00		1.7369E+00		6.0900E+00
			20.00		1.7356E+00		6.0810E+00
			21.00		1.7328E+00		6.0630E+00
			22.00		1.7242E+00		6.0810E+00
			23.00		1.7187E+00		6.0900E+00
			24.00		1.7148E+00		6.1020E+00
			25.00		1.7070E+00		6.1020E+00
			26.00		1.7024E+00		6.0780E+00
			27.00		1.6945E+00		6.0690E+00
			28.00		1.6834E+00		6.0840E+00
			29.00		1.6829E+00		6.0840E+00
			30.00		1.6716E+00		6.0840E+00
			31.00		1.6640E+00		6.0630E+00
			32.00		1.6583E+00		6.0840E+00
			33.00		1.6534E+00		6.0930E+00
			34.00		1.6420E+00		6.0840E+00
			35.00		1.6342E+00		6.0600E+00
			36.00		1.6296E+00		6.0660E+00
			37.00		1.6176E+00		6.0720E+00
			38.00		1.6115E+00		6.0780E+00
			39.00		1.6042E+00		6.0870E+00
			40.00		1.5998E+00		6.1020E+00
			41.00		1.5923E+00		6.1080E+00
			42.00		1.5827E+00		6.0960E+00
			43.00		1.5709E+00		6.0900E+00
			44.00		1.5670E+00		6.0900E+00
			45.00		1.5612E+00		6.0990E+00
			46.00		1.5576E+00		6.0960E+00
			47.00		1.5489E+00		6.0990E+00
			48.00		1.5417E+00		6.0810E+00
			49.00		1.5338E+00		6.0750E+00
			50.00		1.5230E+00		6.0690E+00
			51.00		1.5136E+00		6.0570E+00
			52.00		1.5035E+00		6.0780E+00
			53.00		1.5015E+00		6.0780E+00
			54.00		1.4943E+00		6.0810E+00
			55.00		1.4862E+00		6.0780E+00
			56.00		1.4776E+00		6.0870E+00
			57.00		1.4729E+00		6.0780E+00
			58.00		1.4605E+00		6.0780E+00
			59.00		1.4492E+00		6.0780E+00
			60.00		1.4438E+00		6.0840E+00
			61.00		1.4407E+00		6.0930E+00
			62.00		1.4322E+00		6.0870E+00
			63.00		1.4256E+00		6.0690E+00
			64.00		1.4176E+00		6.0780E+00
			65.00		1.4128E+00		6.0750E+00
			66.00		1.4063E+00		6.0690E+00
			67.00		1.3977E+00		6.0720E+00
			68.00		1.3936E+00		6.0750E+00
			69.00		1.3848E+00		6.0960E+00
			70.00		1.3783E+00		6.0990E+00
			71.00		1.3711E+00		6.0960E+00
			72.00		1.3702E+00		6.1020E+00
			73.00		1.3604E+00		6.1020E+00
			74.00		1.3504E+00		6.0780E+00
			75.00		1.3447E+00		6.0840E+00
			76.00		1.3370E+00		6.0810E+00
			77.00		1.3297E+00		6.0600E+00
			78.00		1.3213E+00		6.0690E+00
			79.00		1.3176E+00		6.0540E+00
			80.00		1.3070E+00		6.0480E+00
			81.00		1.3003E+00		6.0240E+00
			82.00		1.2921E+00		6.0390E+00
			83.00		1.2861E+00		6.0510E+00
			84.00		1.2790E+00		6.0750E+00
			85.00		1.2786E+00		6.0840E+00
			86.00		1.2707E+00		6.0840E+00
			87.00		1.2639E+00		6.0810E+00
			88.00		1.2572E+00		6.0780E+00
			89.00		1.2512E+00		6.0780E+00
			90.00		1.2429E+00		6.0900E+00
			91.00		1.2358E+00		6.0930E+00
			92.00		1.2285E+00		6.0780E+00
			93.00		1.2206E+00		6.0660E+00
			94.00		1.2149E+00		6.0450E+00
			95.00		1.2080E+00		6.0570E+00
			96.00		1.2010E+00		6.0900E+00
			97.00		1.1962E+00		6.0870E+00
			98.00		1.1926E+00		6.0900E+00
			99.00		1.1839E+00		6.0690E+00
			100.00		1.1773E+00		6.0390E+00
			101.00		1.1728E+00		6.0600E+00
			102.00		1.1676E+00		6.0870E+00
			103.00		1.1613E+00		6.0810E+00
			104.00		1.1535E+00		6.0780E+00
			105.00		1.1501E+00		6.0750E+00
			106.00		1.1440E+00		6.0840E+00
			107.00		1.1393E+00		6.0720E+00
			108.00		1.1299E+00		6.0720E+00
			109.00		1.1276E+00		6.0660E+00
			110.00		1.1206E+00		6.0720E+00
			111.00		1.1144E+00		6.0600E+00
			112.00		1.1073E+00		6.0690E+00
			113.00		1.0980E+00		6.0630E+00
			114.00		1.0919E+00		6.0420E+00
			115.00		1.0836E+00		6.0660E+00
			116.00		1.0830E+00		6.0690E+00
			117.00		1.0772E+00		6.0660E+00
			118.00		1.0711E+00		6.0720E+00
			119.00		1.0646E+00		6.0810E+00
			120.00		1.0596E+00		6.0870E+00
			121.00		1.0568E+00		6.0720E+00
			122.00		1.0523E+00		6.0780E+00
			123.00		1.0444E+00		6.0750E+00
			124.00		1.0356E+00		6.0630E+00
			125.00		1.0293E+00		6.0480E+00
			126.00		1.0222E+00		6.0810E+00
			127.00		1.0187E+00		6.0870E+00
			128.00		1.0148E+00		6.0780E+00
			129.00		1.0103E+00		6.0900E+00
			130.00		1.0030E+00		6.0960E+00
			131.00		999.01E-03		6.0690E+00
			132.00		994.55E-03		6.0540E+00
			133.00		988.63E-03		6.0660E+00
			134.00		982.66E-03		6.0540E+00
			135.00		978.67E-03		6.0480E+00
			136.00		971.20E-03		6.0420E+00
			137.00		963.29E-03		6.0480E+00
			138.00		962.41E-03		6.0660E+00
			139.00		958.05E-03		6.0780E+00
			140.00		952.17E-03		6.0840E+00
			141.00		946.85E-03		6.0960E+00
			142.00		941.00E-03		6.1020E+00
			143.00		935.77E-03		6.0720E+00
			144.00		930.93E-03		6.0810E+00
			145.00		928.89E-03		6.0750E+00
			146.00		922.85E-03		6.0660E+00
			147.00		916.96E-03		6.0690E+00
			148.00		912.64E-03		6.0780E+00
			149.00		908.51E-03		6.0660E+00
			150.00		900.49E-03		6.0600E+00
			151.00		895.13E-03		6.0360E+00
			152.00		891.21E-03		6.0390E+00
			153.00		886.08E-03		6.0570E+00
			154.00		879.82E-03		6.0660E+00
			155.00		875.92E-03		6.0930E+00
			156.00		873.58E-03		6.0750E+00
			157.00		867.92E-03		6.0870E+00
			158.00		862.44E-03		6.0630E+00
			159.00		856.65E-03		6.0690E+00
			160.00		853.61E-03		6.0660E+00
			161.00		848.14E-03		6.0450E+00
			162.00		842.91E-03		6.0540E+00
			163.00		840.08E-03		6.0780E+00
			164.00		837.70E-03		6.0630E+00
			165.00		830.44E-03		6.0510E+00
			166.00		824.90E-03		6.0480E+00
			167.00		822.77E-03		6.0600E+00
			168.00		820.83E-03		6.0780E+00
			169.00		815.89E-03		6.0780E+00
			170.00		809.78E-03		6.0720E+00
			171.00		805.03E-03		6.0780E+00
			172.00		798.71E-03		6.0660E+00
			173.00		796.43E-03		6.0570E+00
			174.00		792.59E-03		6.0750E+00
			175.00		786.67E-03		6.0750E+00
			176.00		782.57E-03		6.0570E+00
			177.00		778.27E-03		6.0480E+00
			178.00		774.42E-03		6.0510E+00
			179.00		771.06E-03		6.0540E+00
			180.00		766.60E-03		6.0540E+00
			181.00		761.60E-03		6.0780E+00
			182.00		760.12E-03		6.0780E+00
			183.00		755.80E-03		6.0810E+00
			184.00		750.12E-03		6.0870E+00
			185.00		747.03E-03		6.0600E+00
			186.00		741.33E-03		6.0540E+00
			187.00		736.29E-03		6.0180E+00
			188.00		732.97E-03		6.0330E+00
			189.00		730.62E-03		6.0360E+00
			190.00		727.54E-03		6.0450E+00
			191.00		723.13E-03		6.0570E+00
			192.00		719.86E-03		6.0720E+00
			193.00		716.05E-03		6.0750E+00
			194.00		712.38E-03		6.0810E+00
			195.00		707.94E-03		6.0810E+00
			196.00		704.60E-03		6.0630E+00
			197.00		700.59E-03		6.0720E+00
			198.00		696.79E-03		6.0750E+00
			199.00		694.75E-03		6.0540E+00
			200.00		688.92E-03		6.0660E+00
			201.00		684.05E-03		6.0390E+00
			202.00		681.55E-03		6.0480E+00
			203.00		679.68E-03		6.0690E+00
			204.00		673.58E-03		6.0750E+00
			205.00		669.97E-03		6.0540E+00
			206.00		667.66E-03		6.0480E+00
			207.00		661.71E-03		6.0480E+00
			208.00		659.89E-03		6.0510E+00
			209.00		654.28E-03		6.0570E+00
			210.00		650.84E-03		6.0660E+00
			211.00		647.64E-03		6.0450E+00
			212.00		642.96E-03		6.0330E+00
			213.00		642.50E-03		6.0420E+00
			214.00		638.26E-03		6.0540E+00
			215.00		636.14E-03		6.0600E+00
			216.00		631.06E-03		6.0660E+00
			217.00		627.47E-03		6.0720E+00
			218.00		627.23E-03		6.0600E+00
			219.00		623.27E-03		6.0600E+00
			220.00		619.73E-03		6.0510E+00
			221.00		615.35E-03		6.0600E+00
			222.00		610.56E-03		6.0780E+00
			223.00		610.07E-03		6.0780E+00
			224.00		605.54E-03		6.0690E+00
			225.00		603.17E-03		6.0630E+00
			226.00		597.73E-03		6.0780E+00
			227.00		596.73E-03		6.0630E+00
			228.00		592.06E-03		6.0450E+00
			229.00		587.77E-03		6.0330E+00
			230.00		585.66E-03		6.0240E+00
			231.00		582.47E-03		6.0570E+00
			232.00		579.73E-03		6.0390E+00
			233.00		576.81E-03		6.0540E+00
			234.00		572.49E-03		6.0630E+00
			235.00		572.28E-03		6.0390E+00
			236.00		567.31E-03		6.0390E+00
			237.00		565.26E-03		6.0450E+00
			238.00		563.49E-03		6.0480E+00
			239.00		559.41E-03		6.0600E+00
			240.00		555.17E-03		6.0630E+00
			241.00		552.48E-03		6.0600E+00
			242.00		550.22E-03		6.0630E+00
			243.00		548.12E-03		6.0480E+00
			244.00		544.60E-03		6.0540E+00
			245.00		540.41E-03		6.0510E+00
			246.00		537.47E-03		6.0450E+00
			247.00		534.95E-03		6.0510E+00
			248.00		532.01E-03		6.0450E+00
			249.00		528.22E-03		6.0600E+00
			250.00		527.96E-03		6.0630E+00
			251.00		524.31E-03		6.0480E+00
			252.00		521.35E-03		6.0420E+00
			253.00		517.53E-03		6.0750E+00
			254.00		517.28E-03		6.0780E+00
			255.00		515.14E-03		6.0450E+00
			256.00		509.96E-03		6.0240E+00
			257.00		506.47E-03		6.0240E+00
			258.00		504.48E-03		6.0300E+00
			259.00		501.74E-03		6.0390E+00
			260.00		499.50E-03		6.0540E+00
			261.00		496.53E-03		6.0480E+00
			262.00		494.30E-03		6.0540E+00
			263.00		491.69E-03		6.0660E+00
			264.00		489.81E-03		6.0660E+00
			265.00		487.22E-03		6.0570E+00
			266.00		484.60E-03		6.0570E+00
			267.00		481.43E-03		6.0750E+00
			268.00		479.38E-03		6.0810E+00
			269.00		477.10E-03		6.0660E+00
			270.00		473.90E-03		6.0690E+00
			271.00		472.46E-03		6.0450E+00
			272.00		469.64E-03		6.0180E+00
			273.00		465.54E-03		6.0330E+00
			274.00		462.80E-03		6.0330E+00
			275.00		459.91E-03		6.0540E+00
			276.00		458.64E-03		6.0420E+00
			277.00		455.84E-03		6.0390E+00
			278.00		452.72E-03		6.0210E+00
			279.00		450.57E-03		6.0330E+00
			280.00		449.55E-03		6.0600E+00
			281.00		447.53E-03		6.0720E+00
			282.00		445.89E-03		6.0600E+00
			283.00		443.47E-03		6.0600E+00
			284.00		440.87E-03		6.0780E+00
			285.00		438.80E-03		6.0540E+00
			286.00		435.19E-03		6.0270E+00
			287.00		432.72E-03		6.0510E+00
			288.00		429.92E-03		6.0660E+00
			289.00		428.69E-03		6.0540E+00
			290.00		427.93E-03		6.0360E+00
			291.00		425.91E-03		6.0450E+00
			292.00		422.77E-03		6.0210E+00
			293.00		420.78E-03		6.0210E+00
			294.00		418.91E-03		6.0300E+00
			295.00		416.29E-03		6.0390E+00
			296.00		413.62E-03		6.0570E+00
			297.00		412.17E-03		6.0660E+00
			298.00		409.13E-03		6.0480E+00
		END_DATA
	END_SCAN  1
END_SCAN_DATA
