BEGIN_SCAN_DATA
	FORMAT=CC-Export V1.9                  
	FILE_CREATION_DATE=12-Oct-2022 11:59:26
	LAST_MODIFIED=12-Oct-2022 11:59:26
	BEGIN_SCAN  1
		TASK_NAME=tba PDD Profiles
		PROGRAM=WaterTankScans
		MEAS_DATE=12-Oct-2022 11:58:56
		LINAC=L2 ELEKTA VERSA
		MODALITY=X
		ISOCENTER=1000.00
		INPLANE_AXIS=Inplane
		CROSSPLANE_AXIS=Crossplane
		DEPTH_AXIS=Depth
		INPLANE_AXIS_DIR=GUN_TARGET
		CROSSPLANE_AXIS_DIR=LEFT_RIGHT
		DEPTH_AXIS_DIR=UP_DOWN
		ENERGY=10.00
		NOMINAL_DMAX=22.00
		SSD=1000.00
		BLOCK=0
		WEDGE_ANGLE=0.00
		FIELD_INPLANE=100.00
		FIELD_CROSSPLANE=100.00
		FIELD_TYPE=RECTANGULAR
		GANTRY=0.00
		GANTRY_UPRIGHT_POSITION=0
		GANTRY_ROTATION=CW
		COLL_ANGLE=0.00
		COLL_OFFSET_INPLANE=0.00
		COLL_OFFSET_CROSSPLANE=0.00
		SCAN_DEVICE=BeamScan
		SCAN_DEVICE_SETUP=BARA_LEFT_RIGHT
		ELECTROMETER=BeamScan
		RANGE_FIELD=LOW
		RANGE_REFERENCE=LOW
		DETECTOR=THIMBLE_CHAMBER
		DETECTOR_SUBCODE=SEMIFLEX
		DETECTOR_RADIUS=2.40
		DETECTOR_NAME=PTW Semiflex 3D (Field)
		DETECTOR_SN=141799
		DETECTOR_CALIBRATION=500000000.00
		DETECTOR_IS_CALIBRATED=1
		DETECTOR_REFERENCE=THIMBLE_CHAMBER
		DETECTOR_REFERENCE_SUBCODE=SEMIFLEX
		DETECTOR_REFERENCE_RADIUS=2.40
		DETECTOR_REFERENCE_NAME=PTW Semiflex 3D (REF)
		DETECTOR_REFERENCE_SN=141800
		DETECTOR_REFERENCE_IS_CALIBRATED=0
		DETECTOR_REFERENCE_CALIBRATION=500000000.00
		DETECTOR_HV=400.0
		DETECTOR_REFERENCE_HV=400.0
		DETECTOR_ORIENTATION=HORIZONTAL
		FILTER=FFF
		SCAN_SPEED_PROFILE=0.00
		SCAN_PROF_SPEED_DEP=DEPTH
		SCAN_SPEED_PDD=20.00
		SCAN_PDD_SPEED_DEP=ENERGY
		REF_FIELD_DEPTH=0.00
		REF_FIELD_DEFINED=WATER_SURFACE
		REF_FIELD_INPLANE=100.00
		REF_FIELD_CROSSPLANE=100.00
		REF_SCAN_POSITIONS=0.00;1.00;2.00;3.00;4.00;5.00;6.00;7.00;8.00;9.00;10.00;11.00;12.00;13.00;14.00;15.00;16.00;17.00;18.00;19.00;20.00;21.00;22.00;23.00;24.00;25.00;26.00;27.00;28.00;29.00;30.00;31.00;32.00;33.00;34.00;35.00;36.00;37.00;38.00;39.00;40.00;41.00;42.00;43.00;44.00;45.00;46.00;47.00;48.00;49.00;50.00;51.00;52.00;53.00;54.00;55.00;56.00;57.00;58.00;59.00;60.00;61.00;62.00;63.00;64.00;65.00;66.00;67.00;68.00;69.00;70.00;71.00;72.00;73.00;74.00;75.00;76.00;77.00;78.00;79.00;80.00;81.00;82.00;83.00;84.00;85.00;86.00;87.00;88.00;89.00;90.00;91.00;92.00;93.00;94.00;95.00;96.00;97.00;98.00;99.00;100.00;101.00;102.00;103.00;104.00;105.00;106.00;107.00;108.00;109.00;110.00;111.00;112.00;113.00;114.00;115.00;116.00;117.00;118.00;119.00;120.00;121.00;122.00;123.00;124.00;125.00;126.00;127.00;128.00;129.00;130.00;131.00;132.00;133.00;134.00;135.00;136.00;137.00;138.00;139.00;140.00;141.00;142.00;143.00;144.00;145.00;146.00;147.00;148.00;149.00;150.00;151.00;152.00;153.00;154.00;155.00;156.00;157.00;158.00;159.00;160.00;161.00;162.00;163.00;164.00;165.00;166.00;167.00;168.00;169.00;170.00;171.00;172.00;173.00;174.00;175.00;176.00;177.00;178.00;179.00;180.00;181.00;182.00;183.00;184.00;185.00;186.00;187.00;188.00;189.00;190.00;191.00;192.00;193.00;194.00;195.00;196.00;197.00;198.00;199.00;200.00;201.00;202.00;203.00;204.00;205.00;206.00;207.00;208.00;209.00;210.00;211.00;212.00;213.00;214.00;215.00;216.00;217.00;218.00;219.00;220.00;221.00;222.00;223.00;224.00;225.00;226.00;227.00;228.00;229.00;230.00;231.00;232.00;233.00;234.00;235.00;236.00;237.00;238.00;239.00;240.00;241.00;242.00;243.00;244.00;245.00;246.00;247.00;248.00;249.00;250.00;251.00;252.00;253.00;254.00;255.00;256.00;257.00;258.00;259.00;260.00;261.00;262.00;263.00;264.00;265.00;266.00;267.00;268.00;269.00;270.00;271.00;272.00;273.00;274.00;275.00;276.00;277.00;278.00;279.00;280.00;281.00;282.00;283.00;284.00;285.00;286.00;287.00;288.00;289.00;290.00;291.00;292.00;293.00;294.00;295.00;296.00;297.00;298.00;
		SCAN_CURVETYPE=PDD
		SCAN_OFFAXIS_INPLANE=0.00
		SCAN_OFFAXIS_CROSSPLANE=0.00
		SCAN_ANGLE=0.00
		SCAN_DIAGONAL=NOT_DIAGONAL
		SCAN_DIRECTION=NEGATIVE
		MEAS_MEDIUM=WATER
		MEAS_PRESET=MEAS_CONTINUOUS_REFERENCE_SCAN
		MEAS_TIME=0.050
		MEAS_UNIT=A.U.
		PRESSURE=1013.25
		TEMPERATURE=20.00
		NORM_TEMPERATURE=20.00
		CORRECTION_FACTOR=1.0000
		EXPECTED_MAX_DOSE_RATE=3.00
		BEGIN_DATA
			0.00		938.04E-03		8.3760E+00
			1.00		1.0000E+00		8.3850E+00
			2.00		1.1264E+00		8.3790E+00
			3.00		1.3154E+00		8.3790E+00
			4.00		1.4794E+00		8.3790E+00
			5.00		1.6056E+00		8.3820E+00
			6.00		1.7131E+00		8.3760E+00
			7.00		1.8044E+00		8.3730E+00
			8.00		1.8814E+00		8.3730E+00
			9.00		1.9449E+00		8.3820E+00
			10.00		2.0007E+00		8.3640E+00
			11.00		2.0441E+00		8.3640E+00
			12.00		2.0796E+00		8.3670E+00
			13.00		2.1113E+00		8.3790E+00
			14.00		2.1443E+00		8.3760E+00
			15.00		2.1680E+00		8.3910E+00
			16.00		2.1908E+00		8.3820E+00
			17.00		2.2041E+00		8.3790E+00
			18.00		2.2185E+00		8.3760E+00
			19.00		2.2298E+00		8.3670E+00
			20.00		2.2377E+00		8.3550E+00
			21.00		2.2418E+00		8.3640E+00
			22.00		2.2483E+00		8.3730E+00
			23.00		2.2528E+00		8.3670E+00
			24.00		2.2546E+00		8.3670E+00
			25.00		2.2572E+00		8.3640E+00
			26.00		2.2543E+00		8.3640E+00
			27.00		2.2478E+00		8.3790E+00
			28.00		2.2427E+00		8.3820E+00
			29.00		2.2428E+00		8.3760E+00
			30.00		2.2391E+00		8.3700E+00
			31.00		2.2268E+00		8.3730E+00
			32.00		2.2237E+00		8.3670E+00
			33.00		2.2161E+00		8.3700E+00
			34.00		2.2132E+00		8.3580E+00
			35.00		2.2070E+00		8.3460E+00
			36.00		2.2017E+00		8.3430E+00
			37.00		2.1906E+00		8.3730E+00
			38.00		2.1763E+00		8.3880E+00
			39.00		2.1716E+00		8.3760E+00
			40.00		2.1649E+00		8.3670E+00
			41.00		2.1545E+00		8.3700E+00
			42.00		2.1466E+00		8.3670E+00
			43.00		2.1420E+00		8.3640E+00
			44.00		2.1302E+00		8.3640E+00
			45.00		2.1201E+00		8.3670E+00
			46.00		2.1123E+00		8.3580E+00
			47.00		2.1008E+00		8.3670E+00
			48.00		2.0929E+00		8.3670E+00
			49.00		2.0839E+00		8.3670E+00
			50.00		2.0749E+00		8.3670E+00
			51.00		2.0652E+00		8.3700E+00
			52.00		2.0544E+00		8.3760E+00
			53.00		2.0466E+00		8.3700E+00
			54.00		2.0362E+00		8.3760E+00
			55.00		2.0272E+00		8.3820E+00
			56.00		2.0168E+00		8.3880E+00
			57.00		2.0100E+00		8.3670E+00
			58.00		1.9996E+00		8.3640E+00
			59.00		1.9914E+00		8.3610E+00
			60.00		1.9828E+00		8.3640E+00
			61.00		1.9738E+00		8.3640E+00
			62.00		1.9659E+00		8.3640E+00
			63.00		1.9534E+00		8.3760E+00
			64.00		1.9459E+00		8.3700E+00
			65.00		1.9373E+00		8.3700E+00
			66.00		1.9269E+00		8.3760E+00
			67.00		1.9173E+00		8.3790E+00
			68.00		1.9129E+00		8.3730E+00
			69.00		1.9067E+00		8.3610E+00
			70.00		1.8894E+00		8.3850E+00
			71.00		1.8794E+00		8.3820E+00
			72.00		1.8729E+00		8.3820E+00
			73.00		1.8669E+00		8.3640E+00
			74.00		1.8615E+00		8.3580E+00
			75.00		1.8531E+00		8.3550E+00
			76.00		1.8421E+00		8.3580E+00
			77.00		1.8327E+00		8.3580E+00
			78.00		1.8251E+00		8.3520E+00
			79.00		1.8142E+00		8.3640E+00
			80.00		1.8054E+00		8.3730E+00
			81.00		1.7959E+00		8.3790E+00
			82.00		1.7895E+00		8.3670E+00
			83.00		1.7833E+00		8.3610E+00
			84.00		1.7715E+00		8.3640E+00
			85.00		1.7655E+00		8.3550E+00
			86.00		1.7555E+00		8.3670E+00
			87.00		1.7500E+00		8.3520E+00
			88.00		1.7434E+00		8.3490E+00
			89.00		1.7323E+00		8.3610E+00
			90.00		1.7262E+00		8.3490E+00
			91.00		1.7178E+00		8.3550E+00
			92.00		1.7089E+00		8.3580E+00
			93.00		1.7019E+00		8.3640E+00
			94.00		1.6948E+00		8.3550E+00
			95.00		1.6831E+00		8.3580E+00
			96.00		1.6765E+00		8.3460E+00
			97.00		1.6674E+00		8.3700E+00
			98.00		1.6584E+00		8.3700E+00
			99.00		1.6514E+00		8.3640E+00
			100.00		1.6431E+00		8.3640E+00
			101.00		1.6370E+00		8.3640E+00
			102.00		1.6286E+00		8.3610E+00
			103.00		1.6181E+00		8.3730E+00
			104.00		1.6118E+00		8.3700E+00
			105.00		1.6064E+00		8.3610E+00
			106.00		1.5974E+00		8.3610E+00
			107.00		1.5883E+00		8.3790E+00
			108.00		1.5825E+00		8.3640E+00
			109.00		1.5754E+00		8.3580E+00
			110.00		1.5693E+00		8.3580E+00
			111.00		1.5612E+00		8.3550E+00
			112.00		1.5540E+00		8.3550E+00
			113.00		1.5445E+00		8.3580E+00
			114.00		1.5361E+00		8.3610E+00
			115.00		1.5303E+00		8.3730E+00
			116.00		1.5253E+00		8.3610E+00
			117.00		1.5190E+00		8.3520E+00
			118.00		1.5066E+00		8.3730E+00
			119.00		1.5000E+00		8.3640E+00
			120.00		1.4955E+00		8.3550E+00
			121.00		1.4883E+00		8.3610E+00
			122.00		1.4769E+00		8.3730E+00
			123.00		1.4690E+00		8.3790E+00
			124.00		1.4657E+00		8.3550E+00
			125.00		1.4561E+00		8.3730E+00
			126.00		1.4502E+00		8.3700E+00
			127.00		1.4427E+00		8.3700E+00
			128.00		1.4379E+00		8.3640E+00
			129.00		1.4330E+00		8.3550E+00
			130.00		1.4229E+00		8.3640E+00
			131.00		1.4122E+00		8.3850E+00
			132.00		1.4059E+00		8.3820E+00
			133.00		1.4033E+00		8.3610E+00
			134.00		1.3976E+00		8.3520E+00
			135.00		1.3870E+00		8.3640E+00
			136.00		1.3845E+00		8.3400E+00
			137.00		1.3752E+00		8.3640E+00
			138.00		1.3666E+00		8.3640E+00
			139.00		1.3620E+00		8.3610E+00
			140.00		1.3524E+00		8.3760E+00
			141.00		1.3466E+00		8.3700E+00
			142.00		1.3466E+00		8.3430E+00
			143.00		1.3362E+00		8.3610E+00
			144.00		1.3288E+00		8.3670E+00
			145.00		1.3260E+00		8.3640E+00
			146.00		1.3173E+00		8.3670E+00
			147.00		1.3091E+00		8.3760E+00
			148.00		1.3040E+00		8.3580E+00
			149.00		1.2971E+00		8.3700E+00
			150.00		1.2910E+00		8.3700E+00
			151.00		1.2872E+00		8.3580E+00
			152.00		1.2804E+00		8.3670E+00
			153.00		1.2759E+00		8.3610E+00
			154.00		1.2676E+00		8.3640E+00
			155.00		1.2627E+00		8.3490E+00
			156.00		1.2568E+00		8.3520E+00
			157.00		1.2488E+00		8.3550E+00
			158.00		1.2406E+00		8.3670E+00
			159.00		1.2377E+00		8.3550E+00
			160.00		1.2318E+00		8.3610E+00
			161.00		1.2251E+00		8.3700E+00
			162.00		1.2198E+00		8.3670E+00
			163.00		1.2123E+00		8.3670E+00
			164.00		1.2067E+00		8.3610E+00
			165.00		1.2013E+00		8.3610E+00
			166.00		1.1961E+00		8.3520E+00
			167.00		1.1911E+00		8.3520E+00
			168.00		1.1853E+00		8.3520E+00
			169.00		1.1798E+00		8.3610E+00
			170.00		1.1742E+00		8.3520E+00
			171.00		1.1688E+00		8.3520E+00
			172.00		1.1615E+00		8.3610E+00
			173.00		1.1546E+00		8.3640E+00
			174.00		1.1503E+00		8.3610E+00
			175.00		1.1468E+00		8.3610E+00
			176.00		1.1410E+00		8.3640E+00
			177.00		1.1337E+00		8.3700E+00
			178.00		1.1299E+00		8.3580E+00
			179.00		1.1251E+00		8.3460E+00
			180.00		1.1184E+00		8.3580E+00
			181.00		1.1137E+00		8.3610E+00
			182.00		1.1080E+00		8.3580E+00
			183.00		1.1030E+00		8.3580E+00
			184.00		1.0974E+00		8.3490E+00
			185.00		1.0923E+00		8.3550E+00
			186.00		1.0875E+00		8.3640E+00
			187.00		1.0811E+00		8.3640E+00
			188.00		1.0750E+00		8.3640E+00
			189.00		1.0714E+00		8.3580E+00
			190.00		1.0679E+00		8.3460E+00
			191.00		1.0618E+00		8.3520E+00
			192.00		1.0579E+00		8.3490E+00
			193.00		1.0506E+00		8.3610E+00
			194.00		1.0459E+00		8.3580E+00
			195.00		1.0417E+00		8.3370E+00
			196.00		1.0360E+00		8.3280E+00
			197.00		1.0302E+00		8.3580E+00
			198.00		1.0255E+00		8.3550E+00
			199.00		1.0205E+00		8.3550E+00
			200.00		1.0172E+00		8.3520E+00
			201.00		1.0118E+00		8.3580E+00
			202.00		1.0083E+00		8.3550E+00
			203.00		1.0018E+00		8.3580E+00
			204.00		998.56E-03		8.3580E+00
			205.00		993.89E-03		8.3460E+00
			206.00		988.13E-03		8.3430E+00
			207.00		983.46E-03		8.3430E+00
			208.00		977.03E-03		8.3580E+00
			209.00		973.07E-03		8.3550E+00
			210.00		967.68E-03		8.3550E+00
			211.00		966.21E-03		8.3460E+00
			212.00		960.13E-03		8.3520E+00
			213.00		954.76E-03		8.3550E+00
			214.00		948.69E-03		8.3610E+00
			215.00		943.67E-03		8.3610E+00
			216.00		941.56E-03		8.3670E+00
			217.00		940.35E-03		8.3490E+00
			218.00		933.24E-03		8.3580E+00
			219.00		928.93E-03		8.3580E+00
			220.00		924.16E-03		8.3460E+00
			221.00		919.54E-03		8.3520E+00
			222.00		916.58E-03		8.3430E+00
			223.00		910.95E-03		8.3550E+00
			224.00		907.59E-03		8.3430E+00
			225.00		901.26E-03		8.3550E+00
			226.00		898.74E-03		8.3550E+00
			227.00		893.36E-03		8.3550E+00
			228.00		889.33E-03		8.3490E+00
			229.00		883.35E-03		8.3580E+00
			230.00		881.15E-03		8.3550E+00
			231.00		877.79E-03		8.3460E+00
			232.00		873.92E-03		8.3520E+00
			233.00		869.57E-03		8.3490E+00
			234.00		864.58E-03		8.3520E+00
			235.00		860.89E-03		8.3460E+00
			236.00		854.94E-03		8.3550E+00
			237.00		853.60E-03		8.3400E+00
			238.00		849.03E-03		8.3460E+00
			239.00		844.47E-03		8.3520E+00
			240.00		839.74E-03		8.3490E+00
			241.00		835.79E-03		8.3490E+00
			242.00		832.14E-03		8.3460E+00
			243.00		829.98E-03		8.3460E+00
			244.00		826.56E-03		8.3370E+00
			245.00		818.90E-03		8.3490E+00
			246.00		818.12E-03		8.3460E+00
			247.00		814.10E-03		8.3430E+00
			248.00		808.48E-03		8.3490E+00
			249.00		804.89E-03		8.3490E+00
			250.00		802.44E-03		8.3520E+00
			251.00		796.70E-03		8.3670E+00
			252.00		794.96E-03		8.3400E+00
			253.00		790.65E-03		8.3400E+00
			254.00		788.21E-03		8.3430E+00
			255.00		782.58E-03		8.3340E+00
			256.00		778.50E-03		8.3430E+00
			257.00		775.70E-03		8.3460E+00
			258.00		771.27E-03		8.3550E+00
			259.00		767.88E-03		8.3490E+00
			260.00		764.09E-03		8.3550E+00
			261.00		761.41E-03		8.3490E+00
			262.00		757.82E-03		8.3490E+00
			263.00		754.32E-03		8.3400E+00
			264.00		750.81E-03		8.3430E+00
			265.00		747.93E-03		8.3430E+00
			266.00		746.76E-03		8.3280E+00
			267.00		743.25E-03		8.3310E+00
			268.00		738.75E-03		8.3370E+00
			269.00		734.36E-03		8.3460E+00
			270.00		730.58E-03		8.3400E+00
			271.00		726.72E-03		8.3430E+00
			272.00		723.90E-03		8.3340E+00
			273.00		719.73E-03		8.3490E+00
			274.00		717.57E-03		8.3490E+00
			275.00		713.82E-03		8.3550E+00
			276.00		710.59E-03		8.3550E+00
			277.00		705.54E-03		8.3340E+00
			278.00		702.66E-03		8.3340E+00
			279.00		700.86E-03		8.3340E+00
			280.00		698.34E-03		8.3340E+00
			281.00		694.10E-03		8.3460E+00
			282.00		691.23E-03		8.3460E+00
			283.00		687.99E-03		8.3460E+00
			284.00		685.25E-03		8.3400E+00
			285.00		682.24E-03		8.3460E+00
			286.00		678.16E-03		8.3520E+00
			287.00		674.34E-03		8.3460E+00
			288.00		672.54E-03		8.3460E+00
			289.00		667.03E-03		8.3520E+00
			290.00		665.47E-03		8.3400E+00
			291.00		663.19E-03		8.3370E+00
			292.00		659.35E-03		8.3400E+00
			293.00		655.41E-03		8.3490E+00
			294.00		653.13E-03		8.3460E+00
			295.00		650.36E-03		8.3400E+00
			296.00		647.84E-03		8.3400E+00
			297.00		644.12E-03		8.3370E+00
			298.00		639.63E-03		8.3580E+00
		END_DATA
	END_SCAN  1
END_SCAN_DATA
