BEGIN_SCAN_DATA
	FORMAT=CC-Export V1.9                  
	FILE_CREATION_DATE=14-Sep-2022 13:18:28
	LAST_MODIFIED=14-Sep-2022 13:18:28
	BEGIN_SCAN  1
		TASK_NAME=tba PDD Profiles
		PROGRAM=WaterTankScans
		MEAS_DATE=14-Sep-2022 13:17:43
		LINAC=L2 ELEKTA VERSA
		MODALITY=X
		ISOCENTER=1000.00
		INPLANE_AXIS=Inplane
		CROSSPLANE_AXIS=Crossplane
		DEPTH_AXIS=Depth
		INPLANE_AXIS_DIR=GUN_TARGET
		CROSSPLANE_AXIS_DIR=LEFT_RIGHT
		DEPTH_AXIS_DIR=UP_DOWN
		ENERGY=10.00
		NOMINAL_DMAX=25.00
		SSD=1000.00
		BLOCK=0
		WEDGE_ANGLE=0.00
		FIELD_INPLANE=100.00
		FIELD_CROSSPLANE=100.00
		FIELD_TYPE=RECTANGULAR
		GANTRY=0.00
		GANTRY_UPRIGHT_POSITION=0
		GANTRY_ROTATION=CW
		COLL_ANGLE=0.00
		COLL_OFFSET_INPLANE=0.00
		COLL_OFFSET_CROSSPLANE=0.00
		SCAN_DEVICE=BeamScan
		SCAN_DEVICE_SETUP=BARA_LEFT_RIGHT
		ELECTROMETER=BeamScan
		RANGE_FIELD=LOW
		RANGE_REFERENCE=LOW
		DETECTOR=THIMBLE_CHAMBER
		DETECTOR_SUBCODE=SEMIFLEX
		DETECTOR_RADIUS=2.40
		DETECTOR_NAME=PTW Semiflex 3D (Field)
		DETECTOR_SN=141799
		DETECTOR_CALIBRATION=500000000.00
		DETECTOR_IS_CALIBRATED=1
		DETECTOR_REFERENCE=THIMBLE_CHAMBER
		DETECTOR_REFERENCE_SUBCODE=SEMIFLEX
		DETECTOR_REFERENCE_RADIUS=2.40
		DETECTOR_REFERENCE_NAME=PTW Semiflex 3D (REF)
		DETECTOR_REFERENCE_SN=141800
		DETECTOR_REFERENCE_IS_CALIBRATED=0
		DETECTOR_REFERENCE_CALIBRATION=500000000.00
		DETECTOR_HV=400.0
		DETECTOR_REFERENCE_HV=400.0
		DETECTOR_ORIENTATION=HORIZONTAL
		FILTER=FF
		SCAN_SPEED_PROFILE=0.00
		SCAN_PROF_SPEED_DEP=DEPTH
		SCAN_SPEED_PDD=10.00
		SCAN_PDD_SPEED_DEP=ENERGY
		REF_FIELD_DEPTH=0.00
		REF_FIELD_DEFINED=WATER_SURFACE
		REF_FIELD_INPLANE=100.00
		REF_FIELD_CROSSPLANE=100.00
		REF_SCAN_POSITIONS=0.00;1.00;2.00;3.00;4.00;5.00;6.00;7.00;8.00;9.00;10.00;11.00;12.00;13.00;14.00;15.00;16.00;17.00;18.00;19.00;20.00;21.00;22.00;23.00;24.00;25.00;26.00;27.00;28.00;29.00;30.00;31.00;32.00;33.00;34.00;35.00;36.00;37.00;38.00;39.00;40.00;41.00;42.00;43.00;44.00;45.00;46.00;47.00;48.00;49.00;50.00;51.00;52.00;53.00;54.00;55.00;56.00;57.00;58.00;59.00;60.00;61.00;62.00;63.00;64.00;65.00;66.00;67.00;68.00;69.00;70.00;71.00;72.00;73.00;74.00;75.00;76.00;77.00;78.00;79.00;80.00;81.00;82.00;83.00;84.00;85.00;86.00;87.00;88.00;89.00;90.00;91.00;92.00;93.00;94.00;95.00;96.00;97.00;98.00;99.00;100.00;101.00;102.00;103.00;104.00;105.00;106.00;107.00;108.00;109.00;110.00;111.00;112.00;113.00;114.00;115.00;116.00;117.00;118.00;119.00;120.00;121.00;122.00;123.00;124.00;125.00;126.00;127.00;128.00;129.00;130.00;131.00;132.00;133.00;134.00;135.00;136.00;137.00;138.00;139.00;140.00;141.00;142.00;143.00;144.00;145.00;146.00;147.00;148.00;149.00;150.00;151.00;152.00;153.00;154.00;155.00;156.00;157.00;158.00;159.00;160.00;161.00;162.00;163.00;164.00;165.00;166.00;167.00;168.00;169.00;170.00;171.00;172.00;173.00;174.00;175.00;176.00;177.00;178.00;179.00;180.00;181.00;182.00;183.00;184.00;185.00;186.00;187.00;188.00;189.00;190.00;191.00;192.00;193.00;194.00;195.00;196.00;197.00;198.00;199.00;200.00;201.00;202.00;203.00;204.00;205.00;206.00;207.00;208.00;209.00;210.00;211.00;212.00;213.00;214.00;215.00;216.00;217.00;218.00;219.00;220.00;221.00;222.00;223.00;224.00;225.00;226.00;227.00;228.00;229.00;230.00;231.00;232.00;233.00;234.00;235.00;236.00;237.00;238.00;239.00;240.00;241.00;242.00;243.00;244.00;245.00;246.00;247.00;248.00;249.00;250.00;251.00;252.00;253.00;254.00;255.00;256.00;257.00;258.00;259.00;260.00;261.00;262.00;263.00;264.00;265.00;266.00;267.00;268.00;269.00;270.00;271.00;272.00;273.00;274.00;275.00;276.00;277.00;278.00;279.00;280.00;281.00;282.00;283.00;284.00;285.00;286.00;287.00;288.00;289.00;290.00;291.00;292.00;293.00;294.00;295.00;296.00;297.00;298.00;299.00;300.00;
		SCAN_CURVETYPE=PDD
		SCAN_OFFAXIS_INPLANE=0.00
		SCAN_OFFAXIS_CROSSPLANE=0.00
		SCAN_ANGLE=0.00
		SCAN_DIAGONAL=NOT_DIAGONAL
		SCAN_DIRECTION=NEGATIVE
		MEAS_MEDIUM=WATER
		MEAS_PRESET=MEAS_CONTINUOUS_REFERENCE_SCAN
		MEAS_TIME=0.100
		MEAS_UNIT=A.U.
		PRESSURE=1013.25
		TEMPERATURE=20.00
		NORM_TEMPERATURE=20.00
		CORRECTION_FACTOR=1.0000
		EXPECTED_MAX_DOSE_RATE=3.00
		BEGIN_DATA
			0.00		617.45E-03		2.4138E+00
			1.00		675.49E-03		2.4036E+00
			2.00		786.15E-03		2.4003E+00
			3.00		913.02E-03		2.3970E+00
			4.00		1.0354E+00		2.4036E+00
			5.00		1.1389E+00		2.4150E+00
			6.00		1.2342E+00		2.4042E+00
			7.00		1.2998E+00		2.4189E+00
			8.00		1.3503E+00		2.4195E+00
			9.00		1.3928E+00		2.3994E+00
			10.00		1.4273E+00		2.4171E+00
			11.00		1.4614E+00		2.4306E+00
			12.00		1.4941E+00		2.4015E+00
			13.00		1.5097E+00		2.4144E+00
			14.00		1.5260E+00		2.4141E+00
			15.00		1.5414E+00		2.4114E+00
			16.00		1.5532E+00		2.4201E+00
			17.00		1.5597E+00		2.4312E+00
			18.00		1.5720E+00		2.4141E+00
			19.00		1.5691E+00		2.4147E+00
			20.00		1.5781E+00		2.4048E+00
			21.00		1.5828E+00		2.4072E+00
			22.00		1.5799E+00		2.3982E+00
			23.00		1.5791E+00		2.3994E+00
			24.00		1.5783E+00		2.4159E+00
			25.00		1.5751E+00		2.4075E+00
			26.00		1.5763E+00		2.4189E+00
			27.00		1.5662E+00		2.4039E+00
			28.00		1.5610E+00		2.4138E+00
			29.00		1.5616E+00		2.4072E+00
			30.00		1.5548E+00		2.4216E+00
			31.00		1.5429E+00		2.4246E+00
			32.00		1.5444E+00		2.4087E+00
			33.00		1.5394E+00		2.4048E+00
			34.00		1.5387E+00		2.4078E+00
			35.00		1.5285E+00		2.4063E+00
			36.00		1.5239E+00		2.4135E+00
			37.00		1.5194E+00		2.4207E+00
			38.00		1.5118E+00		2.4189E+00
			39.00		1.5031E+00		2.4090E+00
			40.00		1.4968E+00		2.4171E+00
			41.00		1.4886E+00		2.4204E+00
			42.00		1.4862E+00		2.4183E+00
			43.00		1.4802E+00		2.4159E+00
			44.00		1.4760E+00		2.4024E+00
			45.00		1.4718E+00		2.3970E+00
			46.00		1.4626E+00		2.3916E+00
			47.00		1.4598E+00		2.4168E+00
			48.00		1.4526E+00		2.4123E+00
			49.00		1.4433E+00		2.4090E+00
			50.00		1.4378E+00		2.4099E+00
			51.00		1.4272E+00		2.4237E+00
			52.00		1.4263E+00		2.4189E+00
			53.00		1.4193E+00		2.4054E+00
			54.00		1.4156E+00		2.4138E+00
			55.00		1.4095E+00		2.4264E+00
			56.00		1.3991E+00		2.4273E+00
			57.00		1.3935E+00		2.4177E+00
			58.00		1.3881E+00		2.4162E+00
			59.00		1.3867E+00		2.4252E+00
			60.00		1.3767E+00		2.4231E+00
			61.00		1.3703E+00		2.4213E+00
			62.00		1.3630E+00		2.4300E+00
			63.00		1.3625E+00		2.4243E+00
			64.00		1.3549E+00		2.4246E+00
			65.00		1.3486E+00		2.4159E+00
			66.00		1.3469E+00		2.4078E+00
			67.00		1.3425E+00		2.4246E+00
			68.00		1.3313E+00		2.4111E+00
			69.00		1.3282E+00		2.4123E+00
			70.00		1.3191E+00		2.4084E+00
			71.00		1.3154E+00		2.4198E+00
			72.00		1.3127E+00		2.4180E+00
			73.00		1.3005E+00		2.4291E+00
			74.00		1.2952E+00		2.4414E+00
			75.00		1.2867E+00		2.4294E+00
			76.00		1.2899E+00		2.4141E+00
			77.00		1.2821E+00		2.4219E+00
			78.00		1.2778E+00		2.4183E+00
			79.00		1.2669E+00		2.4390E+00
			80.00		1.2655E+00		2.4228E+00
			81.00		1.2604E+00		2.4183E+00
			82.00		1.2533E+00		2.4177E+00
			83.00		1.2531E+00		2.4084E+00
			84.00		1.2406E+00		2.4231E+00
			85.00		1.2370E+00		2.4276E+00
			86.00		1.2325E+00		2.4324E+00
			87.00		1.2293E+00		2.4165E+00
			88.00		1.2165E+00		2.4318E+00
			89.00		1.2140E+00		2.4114E+00
			90.00		1.2115E+00		2.4048E+00
			91.00		1.2058E+00		2.3979E+00
			92.00		1.1951E+00		2.4183E+00
			93.00		1.1925E+00		2.4309E+00
			94.00		1.1890E+00		2.4222E+00
			95.00		1.1796E+00		2.4354E+00
			96.00		1.1762E+00		2.4267E+00
			97.00		1.1699E+00		2.4339E+00
			98.00		1.1671E+00		2.4303E+00
			99.00		1.1575E+00		2.4228E+00
			100.00		1.1501E+00		2.4267E+00
			101.00		1.1515E+00		2.4054E+00
			102.00		1.1455E+00		2.4192E+00
			103.00		1.1395E+00		2.4240E+00
			104.00		1.1354E+00		2.4225E+00
			105.00		1.1289E+00		2.4327E+00
			106.00		1.1225E+00		2.4153E+00
			107.00		1.1159E+00		2.4384E+00
			108.00		1.1145E+00		2.4105E+00
			109.00		1.1096E+00		2.4057E+00
			110.00		1.1064E+00		2.4003E+00
			111.00		1.1032E+00		2.4192E+00
			112.00		1.0927E+00		2.4180E+00
			113.00		1.0896E+00		2.4144E+00
			114.00		1.0830E+00		2.4219E+00
			115.00		1.0768E+00		2.4183E+00
			116.00		1.0747E+00		2.4303E+00
			117.00		1.0677E+00		2.4234E+00
			118.00		1.0630E+00		2.4372E+00
			119.00		1.0581E+00		2.4315E+00
			120.00		1.0572E+00		2.4186E+00
			121.00		1.0531E+00		2.4312E+00
			122.00		1.0447E+00		2.4279E+00
			123.00		1.0398E+00		2.4036E+00
			124.00		1.0344E+00		2.4051E+00
			125.00		1.0285E+00		2.4276E+00
			126.00		1.0223E+00		2.4252E+00
			127.00		1.0183E+00		2.4489E+00
			128.00		1.0146E+00		2.4279E+00
			129.00		1.0117E+00		2.4147E+00
			130.00		1.0038E+00		2.4192E+00
			131.00		1.0031E+00		2.4027E+00
			132.00		1.0004E+00		2.4060E+00
			133.00		992.46E-03		2.4267E+00
			134.00		988.83E-03		2.4174E+00
			135.00		984.75E-03		2.4195E+00
			136.00		977.17E-03		2.4309E+00
			137.00		975.15E-03		2.4264E+00
			138.00		972.43E-03		2.4270E+00
			139.00		965.11E-03		2.4162E+00
			140.00		963.14E-03		2.4252E+00
			141.00		959.39E-03		2.4081E+00
			142.00		951.49E-03		2.4243E+00
			143.00		947.23E-03		2.4219E+00
			144.00		942.34E-03		2.4246E+00
			145.00		939.69E-03		2.4273E+00
			146.00		935.71E-03		2.4312E+00
			147.00		930.13E-03		2.4258E+00
			148.00		925.24E-03		2.4237E+00
			149.00		923.90E-03		2.4087E+00
			150.00		917.34E-03		2.4279E+00
			151.00		914.47E-03		2.4168E+00
			152.00		910.28E-03		2.4210E+00
			153.00		906.73E-03		2.4252E+00
			154.00		902.44E-03		2.4201E+00
			155.00		894.32E-03		2.4072E+00
			156.00		893.80E-03		2.4039E+00
			157.00		885.88E-03		2.4132E+00
			158.00		883.06E-03		2.4141E+00
			159.00		877.85E-03		2.4117E+00
			160.00		875.50E-03		2.4144E+00
			161.00		873.24E-03		2.4306E+00
			162.00		870.04E-03		2.4285E+00
			163.00		865.29E-03		2.4207E+00
			164.00		859.25E-03		2.4042E+00
			165.00		857.18E-03		2.4219E+00
			166.00		852.57E-03		2.4357E+00
			167.00		844.30E-03		2.4336E+00
			168.00		844.54E-03		2.4315E+00
			169.00		840.40E-03		2.4117E+00
			170.00		832.74E-03		2.4249E+00
			171.00		831.01E-03		2.4054E+00
			172.00		829.51E-03		2.4195E+00
			173.00		822.73E-03		2.4150E+00
			174.00		819.35E-03		2.4246E+00
			175.00		816.21E-03		2.4354E+00
			176.00		813.53E-03		2.4390E+00
			177.00		809.93E-03		2.4117E+00
			178.00		806.21E-03		2.4042E+00
			179.00		802.63E-03		2.4153E+00
			180.00		795.43E-03		2.4315E+00
			181.00		794.14E-03		2.4147E+00
			182.00		791.10E-03		2.4198E+00
			183.00		788.02E-03		2.4243E+00
			184.00		783.67E-03		2.4171E+00
			185.00		779.88E-03		2.4246E+00
			186.00		775.86E-03		2.4279E+00
			187.00		769.68E-03		2.4123E+00
			188.00		769.55E-03		2.4279E+00
			189.00		763.46E-03		2.4300E+00
			190.00		760.00E-03		2.4288E+00
			191.00		756.03E-03		2.4237E+00
			192.00		753.83E-03		2.4276E+00
			193.00		748.89E-03		2.4372E+00
			194.00		745.58E-03		2.4255E+00
			195.00		742.18E-03		2.4261E+00
			196.00		737.61E-03		2.4216E+00
			197.00		737.52E-03		2.4036E+00
			198.00		732.86E-03		2.4246E+00
			199.00		730.36E-03		2.4177E+00
			200.00		725.97E-03		2.4063E+00
			201.00		723.69E-03		2.4114E+00
			202.00		721.14E-03		2.4249E+00
			203.00		715.24E-03		2.4147E+00
			204.00		713.19E-03		2.4288E+00
			205.00		710.63E-03		2.4021E+00
			206.00		705.53E-03		2.4216E+00
			207.00		701.83E-03		2.4087E+00
			208.00		700.39E-03		2.4111E+00
			209.00		696.90E-03		2.4210E+00
			210.00		693.45E-03		2.4309E+00
			211.00		688.98E-03		2.4384E+00
			212.00		685.09E-03		2.4264E+00
			213.00		683.17E-03		2.4297E+00
			214.00		681.32E-03		2.4231E+00
			215.00		677.97E-03		2.4156E+00
			216.00		675.19E-03		2.4051E+00
			217.00		671.81E-03		2.4096E+00
			218.00		665.23E-03		2.4330E+00
			219.00		662.57E-03		2.4174E+00
			220.00		659.48E-03		2.4351E+00
			221.00		657.65E-03		2.4177E+00
			222.00		654.69E-03		2.4048E+00
			223.00		651.30E-03		2.4279E+00
			224.00		651.98E-03		2.3964E+00
			225.00		646.68E-03		2.4063E+00
			226.00		642.98E-03		2.4234E+00
			227.00		642.00E-03		2.4042E+00
			228.00		637.50E-03		2.4207E+00
			229.00		634.67E-03		2.4249E+00
			230.00		632.18E-03		2.4297E+00
			231.00		628.42E-03		2.4132E+00
			232.00		625.60E-03		2.4255E+00
			233.00		621.51E-03		2.4318E+00
			234.00		621.40E-03		2.4255E+00
			235.00		615.18E-03		2.4276E+00
			236.00		614.79E-03		2.4213E+00
			237.00		612.05E-03		2.4042E+00
			238.00		610.86E-03		2.4084E+00
			239.00		608.76E-03		2.4054E+00
			240.00		601.94E-03		2.4177E+00
			241.00		600.20E-03		2.4357E+00
			242.00		596.18E-03		2.4315E+00
			243.00		596.57E-03		2.4123E+00
			244.00		591.94E-03		2.4180E+00
			245.00		588.29E-03		2.4177E+00
			246.00		586.64E-03		2.4255E+00
			247.00		583.47E-03		2.4027E+00
			248.00		581.42E-03		2.3859E+00
			249.00		578.00E-03		2.4057E+00
			250.00		575.16E-03		2.4108E+00
			251.00		572.25E-03		2.4084E+00
			252.00		569.15E-03		2.4120E+00
			253.00		566.72E-03		2.4234E+00
			254.00		566.00E-03		2.4249E+00
			255.00		562.58E-03		2.4375E+00
			256.00		559.35E-03		2.4264E+00
			257.00		556.80E-03		2.4138E+00
			258.00		555.85E-03		2.4093E+00
			259.00		551.17E-03		2.4270E+00
			260.00		549.74E-03		2.4246E+00
			261.00		545.99E-03		2.4297E+00
			262.00		545.11E-03		2.4210E+00
			263.00		542.42E-03		2.4153E+00
			264.00		540.51E-03		2.4144E+00
			265.00		535.42E-03		2.4183E+00
			266.00		534.52E-03		2.4201E+00
			267.00		533.08E-03		2.4081E+00
			268.00		527.23E-03		2.4297E+00
			269.00		525.98E-03		2.4195E+00
			270.00		522.80E-03		2.4147E+00
			271.00		523.52E-03		2.4303E+00
			272.00		520.18E-03		2.4159E+00
			273.00		516.91E-03		2.4219E+00
			274.00		515.53E-03		2.4150E+00
			275.00		511.91E-03		2.4315E+00
			276.00		509.40E-03		2.4246E+00
			277.00		506.40E-03		2.4141E+00
			278.00		505.73E-03		2.4072E+00
			279.00		502.62E-03		2.4084E+00
			280.00		501.93E-03		2.4129E+00
			281.00		500.06E-03		2.4219E+00
			282.00		495.55E-03		2.4252E+00
			283.00		493.31E-03		2.4198E+00
			284.00		490.28E-03		2.4225E+00
			285.00		487.93E-03		2.4243E+00
			286.00		485.29E-03		2.4264E+00
			287.00		483.32E-03		2.4195E+00
			288.00		481.69E-03		2.4246E+00
			289.00		480.32E-03		2.4015E+00
			290.00		477.38E-03		2.4138E+00
			291.00		475.71E-03		2.4210E+00
			292.00		474.77E-03		2.4081E+00
			293.00		471.61E-03		2.4255E+00
			294.00		468.46E-03		2.4348E+00
			295.00		467.24E-03		2.4264E+00
			296.00		465.00E-03		2.4174E+00
			297.00		462.53E-03		2.4057E+00
			298.00		461.39E-03		2.4051E+00
			299.00		460.38E-03		2.4078E+00
			300.00		456.09E-03		2.4186E+00
		END_DATA
	END_SCAN  1
END_SCAN_DATA
