BEGIN_SCAN_DATA
	FORMAT=CC-Export V1.9                  
	FILE_CREATION_DATE=27-Sep-2022 15:58:01
	LAST_MODIFIED=27-Sep-2022 15:58:01
	BEGIN_SCAN  1
		TASK_NAME=tba PDD Profiles
		PROGRAM=WaterTankScans
		MEAS_DATE=27-Sep-2022 15:57:16
		LINAC=L3 ELEKTA SYNERGY
		MODALITY=X
		ISOCENTER=1000.00
		INPLANE_AXIS=Inplane
		CROSSPLANE_AXIS=Crossplane
		DEPTH_AXIS=Depth
		INPLANE_AXIS_DIR=GUN_TARGET
		CROSSPLANE_AXIS_DIR=LEFT_RIGHT
		DEPTH_AXIS_DIR=UP_DOWN
		ENERGY=10.00
		NOMINAL_DMAX=25.00
		SSD=1000.00
		BLOCK=0
		WEDGE_ANGLE=0.00
		FIELD_INPLANE=100.00
		FIELD_CROSSPLANE=100.00
		FIELD_TYPE=RECTANGULAR
		GANTRY=0.00
		GANTRY_UPRIGHT_POSITION=0
		GANTRY_ROTATION=CW
		COLL_ANGLE=0.00
		COLL_OFFSET_INPLANE=0.00
		COLL_OFFSET_CROSSPLANE=0.00
		SCAN_DEVICE=BeamScan
		SCAN_DEVICE_SETUP=BARA_LEFT_RIGHT
		ELECTROMETER=BeamScan
		RANGE_FIELD=LOW
		RANGE_REFERENCE=LOW
		DETECTOR=THIMBLE_CHAMBER
		DETECTOR_SUBCODE=SEMIFLEX
		DETECTOR_RADIUS=2.40
		DETECTOR_NAME=PTW Semiflex 3D (Field)
		DETECTOR_SN=141799
		DETECTOR_CALIBRATION=500000000.00
		DETECTOR_IS_CALIBRATED=1
		DETECTOR_REFERENCE=THIMBLE_CHAMBER
		DETECTOR_REFERENCE_SUBCODE=SEMIFLEX
		DETECTOR_REFERENCE_RADIUS=2.40
		DETECTOR_REFERENCE_NAME=PTW Semiflex 3D (REF)
		DETECTOR_REFERENCE_SN=141800
		DETECTOR_REFERENCE_IS_CALIBRATED=0
		DETECTOR_REFERENCE_CALIBRATION=500000000.00
		DETECTOR_HV=400.0
		DETECTOR_REFERENCE_HV=400.0
		DETECTOR_ORIENTATION=HORIZONTAL
		FILTER=FF
		SCAN_SPEED_PROFILE=0.00
		SCAN_PROF_SPEED_DEP=DEPTH
		SCAN_SPEED_PDD=10.00
		SCAN_PDD_SPEED_DEP=ENERGY
		REF_FIELD_DEPTH=0.00
		REF_FIELD_DEFINED=WATER_SURFACE
		REF_FIELD_INPLANE=100.00
		REF_FIELD_CROSSPLANE=100.00
		REF_SCAN_POSITIONS=0.00;1.00;2.00;3.00;4.00;5.00;6.00;7.00;8.00;9.00;10.00;11.00;12.00;13.00;14.00;15.00;16.00;17.00;18.00;19.00;20.00;21.00;22.00;23.00;24.00;25.00;26.00;27.00;28.00;29.00;30.00;31.00;32.00;33.00;34.00;35.00;36.00;37.00;38.00;39.00;40.00;41.00;42.00;43.00;44.00;45.00;46.00;47.00;48.00;49.00;50.00;51.00;52.00;53.00;54.00;55.00;56.00;57.00;58.00;59.00;60.00;61.00;62.00;63.00;64.00;65.00;66.00;67.00;68.00;69.00;70.00;71.00;72.00;73.00;74.00;75.00;76.00;77.00;78.00;79.00;80.00;81.00;82.00;83.00;84.00;85.00;86.00;87.00;88.00;89.00;90.00;91.00;92.00;93.00;94.00;95.00;96.00;97.00;98.00;99.00;100.00;101.00;102.00;103.00;104.00;105.00;106.00;107.00;108.00;109.00;110.00;111.00;112.00;113.00;114.00;115.00;116.00;117.00;118.00;119.00;120.00;121.00;122.00;123.00;124.00;125.00;126.00;127.00;128.00;129.00;130.00;131.00;132.00;133.00;134.00;135.00;136.00;137.00;138.00;139.00;140.00;141.00;142.00;143.00;144.00;145.00;146.00;147.00;148.00;149.00;150.00;151.00;152.00;153.00;154.00;155.00;156.00;157.00;158.00;159.00;160.00;161.00;162.00;163.00;164.00;165.00;166.00;167.00;168.00;169.00;170.00;171.00;172.00;173.00;174.00;175.00;176.00;177.00;178.00;179.00;180.00;181.00;182.00;183.00;184.00;185.00;186.00;187.00;188.00;189.00;190.00;191.00;192.00;193.00;194.00;195.00;196.00;197.00;198.00;199.00;200.00;201.00;202.00;203.00;204.00;205.00;206.00;207.00;208.00;209.00;210.00;211.00;212.00;213.00;214.00;215.00;216.00;217.00;218.00;219.00;220.00;221.00;222.00;223.00;224.00;225.00;226.00;227.00;228.00;229.00;230.00;231.00;232.00;233.00;234.00;235.00;236.00;237.00;238.00;239.00;240.00;241.00;242.00;243.00;244.00;245.00;246.00;247.00;248.00;249.00;250.00;251.00;252.00;253.00;254.00;255.00;256.00;257.00;258.00;259.00;260.00;261.00;262.00;263.00;264.00;265.00;266.00;267.00;268.00;269.00;270.00;271.00;272.00;273.00;274.00;275.00;276.00;277.00;278.00;279.00;280.00;281.00;282.00;283.00;284.00;285.00;286.00;287.00;288.00;289.00;290.00;291.00;292.00;293.00;294.00;295.00;296.00;297.00;298.00;299.00;300.00;
		SCAN_CURVETYPE=PDD
		SCAN_OFFAXIS_INPLANE=0.00
		SCAN_OFFAXIS_CROSSPLANE=0.00
		SCAN_ANGLE=0.00
		SCAN_DIAGONAL=NOT_DIAGONAL
		SCAN_DIRECTION=NEGATIVE
		MEAS_MEDIUM=WATER
		MEAS_PRESET=MEAS_CONTINUOUS_REFERENCE_SCAN
		MEAS_TIME=0.100
		MEAS_UNIT=A.U.
		PRESSURE=1013.25
		TEMPERATURE=20.00
		NORM_TEMPERATURE=20.00
		CORRECTION_FACTOR=1.0000
		EXPECTED_MAX_DOSE_RATE=3.00
		BEGIN_DATA
			0.00		596.33E-03		2.8107E+00
			1.00		646.30E-03		2.7981E+00
			2.00		730.67E-03		2.8092E+00
			3.00		869.07E-03		2.8068E+00
			4.00		1.0052E+00		2.8146E+00
			5.00		1.1124E+00		2.8101E+00
			6.00		1.1863E+00		2.8071E+00
			7.00		1.2433E+00		2.8014E+00
			8.00		1.2958E+00		2.8059E+00
			9.00		1.3406E+00		2.8062E+00
			10.00		1.3809E+00		2.8113E+00
			11.00		1.4116E+00		2.8245E+00
			12.00		1.4327E+00		2.8143E+00
			13.00		1.4623E+00		2.8065E+00
			14.00		1.4784E+00		2.8065E+00
			15.00		1.4888E+00		2.8191E+00
			16.00		1.5021E+00		2.8101E+00
			17.00		1.5146E+00		2.8086E+00
			18.00		1.5162E+00		2.8077E+00
			19.00		1.5175E+00		2.8152E+00
			20.00		1.5223E+00		2.8062E+00
			21.00		1.5249E+00		2.8113E+00
			22.00		1.5196E+00		2.8152E+00
			23.00		1.5246E+00		2.8080E+00
			24.00		1.5221E+00		2.8086E+00
			25.00		1.5243E+00		2.8104E+00
			26.00		1.5204E+00		2.8038E+00
			27.00		1.5141E+00		2.8095E+00
			28.00		1.5059E+00		2.8149E+00
			29.00		1.5028E+00		2.8068E+00
			30.00		1.4998E+00		2.8083E+00
			31.00		1.5000E+00		2.8020E+00
			32.00		1.4955E+00		2.8044E+00
			33.00		1.4885E+00		2.8095E+00
			34.00		1.4837E+00		2.8065E+00
			35.00		1.4779E+00		2.8074E+00
			36.00		1.4687E+00		2.8107E+00
			37.00		1.4646E+00		2.8104E+00
			38.00		1.4592E+00		2.8104E+00
			39.00		1.4542E+00		2.8077E+00
			40.00		1.4478E+00		2.8140E+00
			41.00		1.4412E+00		2.8059E+00
			42.00		1.4356E+00		2.8065E+00
			43.00		1.4293E+00		2.8083E+00
			44.00		1.4237E+00		2.8089E+00
			45.00		1.4190E+00		2.8077E+00
			46.00		1.4136E+00		2.8077E+00
			47.00		1.4072E+00		2.8077E+00
			48.00		1.4023E+00		2.8110E+00
			49.00		1.3955E+00		2.8032E+00
			50.00		1.3907E+00		2.8086E+00
			51.00		1.3853E+00		2.7957E+00
			52.00		1.3747E+00		2.8107E+00
			53.00		1.3739E+00		2.8125E+00
			54.00		1.3676E+00		2.8101E+00
			55.00		1.3608E+00		2.8065E+00
			56.00		1.3553E+00		2.8068E+00
			57.00		1.3479E+00		2.8044E+00
			58.00		1.3412E+00		2.8095E+00
			59.00		1.3410E+00		2.8077E+00
			60.00		1.3338E+00		2.8071E+00
			61.00		1.3257E+00		2.8038E+00
			62.00		1.3198E+00		2.8005E+00
			63.00		1.3163E+00		2.8011E+00
			64.00		1.3089E+00		2.8191E+00
			65.00		1.3021E+00		2.8131E+00
			66.00		1.2956E+00		2.8110E+00
			67.00		1.2926E+00		2.8083E+00
			68.00		1.2875E+00		2.8077E+00
			69.00		1.2830E+00		2.8059E+00
			70.00		1.2768E+00		2.8032E+00
			71.00		1.2676E+00		2.8140E+00
			72.00		1.2653E+00		2.7978E+00
			73.00		1.2560E+00		2.8089E+00
			74.00		1.2519E+00		2.7990E+00
			75.00		1.2463E+00		2.8068E+00
			76.00		1.2444E+00		2.8086E+00
			77.00		1.2368E+00		2.8137E+00
			78.00		1.2305E+00		2.8110E+00
			79.00		1.2272E+00		2.8113E+00
			80.00		1.2202E+00		2.8053E+00
			81.00		1.2179E+00		2.8080E+00
			82.00		1.2100E+00		2.8116E+00
			83.00		1.2049E+00		2.8086E+00
			84.00		1.1959E+00		2.8095E+00
			85.00		1.1961E+00		2.8092E+00
			86.00		1.1878E+00		2.8086E+00
			87.00		1.1800E+00		2.8143E+00
			88.00		1.1791E+00		2.8038E+00
			89.00		1.1728E+00		2.8035E+00
			90.00		1.1695E+00		2.8089E+00
			91.00		1.1642E+00		2.8062E+00
			92.00		1.1580E+00		2.8083E+00
			93.00		1.1535E+00		2.8140E+00
			94.00		1.1475E+00		2.8104E+00
			95.00		1.1442E+00		2.8002E+00
			96.00		1.1388E+00		2.8029E+00
			97.00		1.1300E+00		2.8008E+00
			98.00		1.1250E+00		2.8026E+00
			99.00		1.1194E+00		2.8032E+00
			100.00		1.1151E+00		2.8086E+00
			101.00		1.1083E+00		2.8044E+00
			102.00		1.1064E+00		2.8065E+00
			103.00		1.1003E+00		2.8164E+00
			104.00		1.0927E+00		2.8059E+00
			105.00		1.0920E+00		2.8023E+00
			106.00		1.0852E+00		2.8059E+00
			107.00		1.0800E+00		2.8056E+00
			108.00		1.0753E+00		2.8095E+00
			109.00		1.0721E+00		2.8095E+00
			110.00		1.0655E+00		2.8110E+00
			111.00		1.0611E+00		2.8029E+00
			112.00		1.0593E+00		2.8089E+00
			113.00		1.0516E+00		2.8050E+00
			114.00		1.0459E+00		2.8104E+00
			115.00		1.0427E+00		2.8089E+00
			116.00		1.0401E+00		2.8053E+00
			117.00		1.0352E+00		2.8029E+00
			118.00		1.0284E+00		2.8065E+00
			119.00		1.0218E+00		2.8089E+00
			120.00		1.0208E+00		2.8026E+00
			121.00		1.0148E+00		2.8143E+00
			122.00		1.0107E+00		2.8071E+00
			123.00		1.0060E+00		2.8056E+00
			124.00		1.0022E+00		2.8014E+00
			125.00		995.08E-03		2.8062E+00
			126.00		991.85E-03		2.7981E+00
			127.00		987.80E-03		2.8032E+00
			128.00		982.86E-03		2.7999E+00
			129.00		977.35E-03		2.8077E+00
			130.00		970.56E-03		2.8125E+00
			131.00		968.79E-03		2.8068E+00
			132.00		963.50E-03		2.8110E+00
			133.00		956.85E-03		2.8158E+00
			134.00		953.83E-03		2.8008E+00
			135.00		950.25E-03		2.8101E+00
			136.00		945.12E-03		2.8098E+00
			137.00		941.82E-03		2.8053E+00
			138.00		936.69E-03		2.8146E+00
			139.00		930.53E-03		2.8068E+00
			140.00		927.66E-03		2.8077E+00
			141.00		925.70E-03		2.8101E+00
			142.00		919.23E-03		2.8041E+00
			143.00		917.64E-03		2.8011E+00
			144.00		912.18E-03		2.8047E+00
			145.00		905.59E-03		2.8089E+00
			146.00		904.17E-03		2.8080E+00
			147.00		898.02E-03		2.8035E+00
			148.00		894.73E-03		2.8041E+00
			149.00		888.81E-03		2.8059E+00
			150.00		886.27E-03		2.8041E+00
			151.00		882.42E-03		2.8041E+00
			152.00		878.92E-03		2.8047E+00
			153.00		874.51E-03		2.8113E+00
			154.00		869.57E-03		2.8038E+00
			155.00		867.10E-03		2.7990E+00
			156.00		862.09E-03		2.8062E+00
			157.00		857.04E-03		2.8119E+00
			158.00		853.35E-03		2.8107E+00
			159.00		852.01E-03		2.8077E+00
			160.00		844.20E-03		2.8074E+00
			161.00		840.32E-03		2.8050E+00
			162.00		839.55E-03		2.8065E+00
			163.00		834.88E-03		2.8089E+00
			164.00		832.62E-03		2.8086E+00
			165.00		825.54E-03		2.8167E+00
			166.00		821.84E-03		2.8104E+00
			167.00		818.43E-03		2.8089E+00
			168.00		814.32E-03		2.8065E+00
			169.00		810.46E-03		2.8110E+00
			170.00		809.13E-03		2.8119E+00
			171.00		805.33E-03		2.8125E+00
			172.00		799.15E-03		2.8080E+00
			173.00		796.10E-03		2.8029E+00
			174.00		792.16E-03		2.8002E+00
			175.00		788.14E-03		2.7981E+00
			176.00		781.88E-03		2.8017E+00
			177.00		779.73E-03		2.8056E+00
			178.00		775.88E-03		2.8056E+00
			179.00		773.23E-03		2.8059E+00
			180.00		768.80E-03		2.8080E+00
			181.00		766.56E-03		2.7990E+00
			182.00		762.89E-03		2.8038E+00
			183.00		759.20E-03		2.7957E+00
			184.00		754.06E-03		2.8068E+00
			185.00		751.07E-03		2.8116E+00
			186.00		750.24E-03		2.8035E+00
			187.00		746.93E-03		2.8083E+00
			188.00		744.14E-03		2.8047E+00
			189.00		739.11E-03		2.8092E+00
			190.00		735.01E-03		2.8065E+00
			191.00		731.56E-03		2.8062E+00
			192.00		727.32E-03		2.8044E+00
			193.00		724.36E-03		2.8026E+00
			194.00		722.42E-03		2.8122E+00
			195.00		716.55E-03		2.8026E+00
			196.00		715.43E-03		2.8053E+00
			197.00		712.53E-03		2.8083E+00
			198.00		707.24E-03		2.8047E+00
			199.00		706.25E-03		2.8065E+00
			200.00		700.80E-03		2.8005E+00
			201.00		698.31E-03		2.8002E+00
			202.00		695.17E-03		2.8029E+00
			203.00		691.72E-03		2.8143E+00
			204.00		688.28E-03		2.8044E+00
			205.00		685.45E-03		2.8050E+00
			206.00		682.26E-03		2.8146E+00
			207.00		678.68E-03		2.8131E+00
			208.00		676.21E-03		2.8092E+00
			209.00		673.73E-03		2.8026E+00
			210.00		668.70E-03		2.8062E+00
			211.00		666.42E-03		2.7987E+00
			212.00		661.51E-03		2.8104E+00
			213.00		659.29E-03		2.8062E+00
			214.00		654.86E-03		2.8110E+00
			215.00		654.00E-03		2.8023E+00
			216.00		651.23E-03		2.8059E+00
			217.00		646.54E-03		2.8119E+00
			218.00		646.65E-03		2.8077E+00
			219.00		642.96E-03		2.8005E+00
			220.00		639.32E-03		2.8089E+00
			221.00		637.66E-03		2.8059E+00
			222.00		633.39E-03		2.8101E+00
			223.00		630.98E-03		2.8104E+00
			224.00		627.98E-03		2.8095E+00
			225.00		624.59E-03		2.8089E+00
			226.00		621.43E-03		2.8077E+00
			227.00		616.88E-03		2.8002E+00
			228.00		614.70E-03		2.8038E+00
			229.00		611.81E-03		2.8146E+00
			230.00		610.70E-03		2.8050E+00
			231.00		608.90E-03		2.8167E+00
			232.00		603.29E-03		2.8116E+00
			233.00		601.81E-03		2.8125E+00
			234.00		596.97E-03		2.8122E+00
			235.00		594.96E-03		2.8101E+00
			236.00		594.35E-03		2.8059E+00
			237.00		591.88E-03		2.8065E+00
			238.00		588.60E-03		2.8053E+00
			239.00		586.33E-03		2.8044E+00
			240.00		581.86E-03		2.8074E+00
			241.00		579.97E-03		2.8005E+00
			242.00		575.96E-03		2.8059E+00
			243.00		574.28E-03		2.8068E+00
			244.00		572.02E-03		2.8095E+00
			245.00		569.26E-03		2.8110E+00
			246.00		567.17E-03		2.8092E+00
			247.00		562.95E-03		2.8095E+00
			248.00		561.57E-03		2.8116E+00
			249.00		558.39E-03		2.8104E+00
			250.00		554.72E-03		2.8155E+00
			251.00		552.74E-03		2.8131E+00
			252.00		550.89E-03		2.8002E+00
			253.00		547.06E-03		2.8017E+00
			254.00		548.03E-03		2.8011E+00
			255.00		543.99E-03		2.7993E+00
			256.00		539.15E-03		2.8044E+00
			257.00		538.23E-03		2.8092E+00
			258.00		537.05E-03		2.8098E+00
			259.00		532.35E-03		2.8143E+00
			260.00		532.33E-03		2.8026E+00
			261.00		529.01E-03		2.8020E+00
			262.00		525.44E-03		2.8068E+00
			263.00		522.92E-03		2.8077E+00
			264.00		521.03E-03		2.8035E+00
			265.00		516.42E-03		2.8128E+00
			266.00		516.37E-03		2.8032E+00
			267.00		513.41E-03		2.8077E+00
			268.00		512.93E-03		2.8080E+00
			269.00		508.38E-03		2.8095E+00
			270.00		506.21E-03		2.8038E+00
			271.00		502.79E-03		2.7918E+00
			272.00		502.78E-03		2.8026E+00
			273.00		499.46E-03		2.7996E+00
			274.00		497.33E-03		2.8116E+00
			275.00		494.65E-03		2.8056E+00
			276.00		493.91E-03		2.8074E+00
			277.00		491.59E-03		2.8005E+00
			278.00		488.29E-03		2.8059E+00
			279.00		484.75E-03		2.8041E+00
			280.00		482.59E-03		2.8092E+00
			281.00		481.91E-03		2.8107E+00
			282.00		478.51E-03		2.8056E+00
			283.00		478.54E-03		2.8035E+00
			284.00		475.20E-03		2.8068E+00
			285.00		472.44E-03		2.8086E+00
			286.00		472.27E-03		2.8077E+00
			287.00		469.09E-03		2.8095E+00
			288.00		466.40E-03		2.8083E+00
			289.00		463.55E-03		2.8107E+00
			290.00		461.14E-03		2.8065E+00
			291.00		458.50E-03		2.8122E+00
			292.00		455.54E-03		2.8140E+00
			293.00		455.74E-03		2.8095E+00
			294.00		453.73E-03		2.8041E+00
			295.00		452.64E-03		2.8029E+00
			296.00		449.33E-03		2.8002E+00
			297.00		447.85E-03		2.8014E+00
			298.00		446.04E-03		2.7939E+00
			299.00		442.10E-03		2.8059E+00
			300.00		440.94E-03		2.8038E+00
		END_DATA
	END_SCAN  1
END_SCAN_DATA
