BEGIN_SCAN_DATA
	FORMAT=CC-Export V1.9                  
	FILE_CREATION_DATE=12-Oct-2022 11:58:23
	LAST_MODIFIED=12-Oct-2022 11:58:23
	BEGIN_SCAN  1
		TASK_NAME=tba PDD Profiles
		PROGRAM=WaterTankScans
		MEAS_DATE=12-Oct-2022 11:57:37
		LINAC=L2 ELEKTA VERSA
		MODALITY=X
		ISOCENTER=1000.00
		INPLANE_AXIS=Inplane
		CROSSPLANE_AXIS=Crossplane
		DEPTH_AXIS=Depth
		INPLANE_AXIS_DIR=GUN_TARGET
		CROSSPLANE_AXIS_DIR=LEFT_RIGHT
		DEPTH_AXIS_DIR=UP_DOWN
		ENERGY=10.00
		NOMINAL_DMAX=25.00
		SSD=1000.00
		BLOCK=0
		WEDGE_ANGLE=0.00
		FIELD_INPLANE=100.00
		FIELD_CROSSPLANE=100.00
		FIELD_TYPE=RECTANGULAR
		GANTRY=0.00
		GANTRY_UPRIGHT_POSITION=0
		GANTRY_ROTATION=CW
		COLL_ANGLE=0.00
		COLL_OFFSET_INPLANE=0.00
		COLL_OFFSET_CROSSPLANE=0.00
		SCAN_DEVICE=BeamScan
		SCAN_DEVICE_SETUP=BARA_LEFT_RIGHT
		ELECTROMETER=BeamScan
		RANGE_FIELD=LOW
		RANGE_REFERENCE=LOW
		DETECTOR=THIMBLE_CHAMBER
		DETECTOR_SUBCODE=SEMIFLEX
		DETECTOR_RADIUS=2.40
		DETECTOR_NAME=PTW Semiflex 3D (Field)
		DETECTOR_SN=141799
		DETECTOR_CALIBRATION=500000000.00
		DETECTOR_IS_CALIBRATED=1
		DETECTOR_REFERENCE=THIMBLE_CHAMBER
		DETECTOR_REFERENCE_SUBCODE=SEMIFLEX
		DETECTOR_REFERENCE_RADIUS=2.40
		DETECTOR_REFERENCE_NAME=PTW Semiflex 3D (REF)
		DETECTOR_REFERENCE_SN=141800
		DETECTOR_REFERENCE_IS_CALIBRATED=0
		DETECTOR_REFERENCE_CALIBRATION=500000000.00
		DETECTOR_HV=400.0
		DETECTOR_REFERENCE_HV=400.0
		DETECTOR_ORIENTATION=HORIZONTAL
		FILTER=WFF
		SCAN_SPEED_PROFILE=0.00
		SCAN_PROF_SPEED_DEP=DEPTH
		SCAN_SPEED_PDD=10.00
		SCAN_PDD_SPEED_DEP=ENERGY
		REF_FIELD_DEPTH=0.00
		REF_FIELD_DEFINED=WATER_SURFACE
		REF_FIELD_INPLANE=100.00
		REF_FIELD_CROSSPLANE=100.00
		REF_SCAN_POSITIONS=0.00;1.00;2.00;3.00;4.00;5.00;6.00;7.00;8.00;9.00;10.00;11.00;12.00;13.00;14.00;15.00;16.00;17.00;18.00;19.00;20.00;21.00;22.00;23.00;24.00;25.00;26.00;27.00;28.00;29.00;30.00;31.00;32.00;33.00;34.00;35.00;36.00;37.00;38.00;39.00;40.00;41.00;42.00;43.00;44.00;45.00;46.00;47.00;48.00;49.00;50.00;51.00;52.00;53.00;54.00;55.00;56.00;57.00;58.00;59.00;60.00;61.00;62.00;63.00;64.00;65.00;66.00;67.00;68.00;69.00;70.00;71.00;72.00;73.00;74.00;75.00;76.00;77.00;78.00;79.00;80.00;81.00;82.00;83.00;84.00;85.00;86.00;87.00;88.00;89.00;90.00;91.00;92.00;93.00;94.00;95.00;96.00;97.00;98.00;99.00;100.00;101.00;102.00;103.00;104.00;105.00;106.00;107.00;108.00;109.00;110.00;111.00;112.00;113.00;114.00;115.00;116.00;117.00;118.00;119.00;120.00;121.00;122.00;123.00;124.00;125.00;126.00;127.00;128.00;129.00;130.00;131.00;132.00;133.00;134.00;135.00;136.00;137.00;138.00;139.00;140.00;141.00;142.00;143.00;144.00;145.00;146.00;147.00;148.00;149.00;150.00;151.00;152.00;153.00;154.00;155.00;156.00;157.00;158.00;159.00;160.00;161.00;162.00;163.00;164.00;165.00;166.00;167.00;168.00;169.00;170.00;171.00;172.00;173.00;174.00;175.00;176.00;177.00;178.00;179.00;180.00;181.00;182.00;183.00;184.00;185.00;186.00;187.00;188.00;189.00;190.00;191.00;192.00;193.00;194.00;195.00;196.00;197.00;198.00;199.00;200.00;201.00;202.00;203.00;204.00;205.00;206.00;207.00;208.00;209.00;210.00;211.00;212.00;213.00;214.00;215.00;216.00;217.00;218.00;219.00;220.00;221.00;222.00;223.00;224.00;225.00;226.00;227.00;228.00;229.00;230.00;231.00;232.00;233.00;234.00;235.00;236.00;237.00;238.00;239.00;240.00;241.00;242.00;243.00;244.00;245.00;246.00;247.00;248.00;249.00;250.00;251.00;252.00;253.00;254.00;255.00;256.00;257.00;258.00;259.00;260.00;261.00;262.00;263.00;264.00;265.00;266.00;267.00;268.00;269.00;270.00;271.00;272.00;273.00;274.00;275.00;276.00;277.00;278.00;279.00;280.00;281.00;282.00;283.00;284.00;285.00;286.00;287.00;288.00;289.00;290.00;291.00;292.00;293.00;294.00;295.00;296.00;297.00;298.00;299.00;300.00;
		SCAN_CURVETYPE=PDD
		SCAN_OFFAXIS_INPLANE=0.00
		SCAN_OFFAXIS_CROSSPLANE=0.00
		SCAN_ANGLE=0.00
		SCAN_DIAGONAL=NOT_DIAGONAL
		SCAN_DIRECTION=NEGATIVE
		MEAS_MEDIUM=WATER
		MEAS_PRESET=MEAS_CONTINUOUS_REFERENCE_SCAN
		MEAS_TIME=0.100
		MEAS_UNIT=A.U.
		PRESSURE=1013.25
		TEMPERATURE=20.00
		NORM_TEMPERATURE=20.00
		CORRECTION_FACTOR=1.0000
		EXPECTED_MAX_DOSE_RATE=3.00
		BEGIN_DATA
			0.00		774.33E-03		1.9608E+00
			1.00		849.05E-03		1.9596E+00
			2.00		974.36E-03		1.9539E+00
			3.00		1.1571E+00		1.9551E+00
			4.00		1.3095E+00		1.9659E+00
			5.00		1.4554E+00		1.9590E+00
			6.00		1.5550E+00		1.9524E+00
			7.00		1.6272E+00		1.9524E+00
			8.00		1.6943E+00		1.9566E+00
			9.00		1.7547E+00		1.9542E+00
			10.00		1.8015E+00		1.9617E+00
			11.00		1.8487E+00		1.9587E+00
			12.00		1.8846E+00		1.9548E+00
			13.00		1.8994E+00		1.9617E+00
			14.00		1.9175E+00		1.9572E+00
			15.00		1.9405E+00		1.9572E+00
			16.00		1.9458E+00		1.9596E+00
			17.00		1.9649E+00		1.9512E+00
			18.00		1.9690E+00		1.9548E+00
			19.00		1.9725E+00		1.9605E+00
			20.00		1.9743E+00		1.9632E+00
			21.00		1.9792E+00		1.9644E+00
			22.00		1.9792E+00		1.9584E+00
			23.00		1.9816E+00		1.9590E+00
			24.00		1.9819E+00		1.9512E+00
			25.00		1.9742E+00		1.9512E+00
			26.00		1.9773E+00		1.9527E+00
			27.00		1.9654E+00		1.9599E+00
			28.00		1.9635E+00		1.9557E+00
			29.00		1.9613E+00		1.9548E+00
			30.00		1.9498E+00		1.9587E+00
			31.00		1.9440E+00		1.9599E+00
			32.00		1.9356E+00		1.9560E+00
			33.00		1.9337E+00		1.9548E+00
			34.00		1.9243E+00		1.9581E+00
			35.00		1.9186E+00		1.9608E+00
			36.00		1.9115E+00		1.9602E+00
			37.00		1.8994E+00		1.9554E+00
			38.00		1.8935E+00		1.9551E+00
			39.00		1.8914E+00		1.9509E+00
			40.00		1.8807E+00		1.9557E+00
			41.00		1.8753E+00		1.9581E+00
			42.00		1.8667E+00		1.9575E+00
			43.00		1.8591E+00		1.9590E+00
			44.00		1.8525E+00		1.9563E+00
			45.00		1.8429E+00		1.9518E+00
			46.00		1.8337E+00		1.9518E+00
			47.00		1.8279E+00		1.9563E+00
			48.00		1.8221E+00		1.9560E+00
			49.00		1.8134E+00		1.9587E+00
			50.00		1.8012E+00		1.9587E+00
			51.00		1.7899E+00		1.9644E+00
			52.00		1.7824E+00		1.9575E+00
			53.00		1.7860E+00		1.9485E+00
			54.00		1.7655E+00		1.9575E+00
			55.00		1.7680E+00		1.9548E+00
			56.00		1.7641E+00		1.9506E+00
			57.00		1.7493E+00		1.9602E+00
			58.00		1.7396E+00		1.9608E+00
			59.00		1.7377E+00		1.9560E+00
			60.00		1.7311E+00		1.9548E+00
			61.00		1.7182E+00		1.9608E+00
			62.00		1.7096E+00		1.9548E+00
			63.00		1.6986E+00		1.9587E+00
			64.00		1.6924E+00		1.9605E+00
			65.00		1.6838E+00		1.9563E+00
			66.00		1.6820E+00		1.9620E+00
			67.00		1.6736E+00		1.9575E+00
			68.00		1.6741E+00		1.9551E+00
			69.00		1.6613E+00		1.9521E+00
			70.00		1.6521E+00		1.9539E+00
			71.00		1.6468E+00		1.9638E+00
			72.00		1.6395E+00		1.9542E+00
			73.00		1.6273E+00		1.9578E+00
			74.00		1.6260E+00		1.9557E+00
			75.00		1.6171E+00		1.9572E+00
			76.00		1.6106E+00		1.9521E+00
			77.00		1.6039E+00		1.9509E+00
			78.00		1.5963E+00		1.9527E+00
			79.00		1.5862E+00		1.9575E+00
			80.00		1.5803E+00		1.9572E+00
			81.00		1.5744E+00		1.9569E+00
			82.00		1.5668E+00		1.9530E+00
			83.00		1.5578E+00		1.9566E+00
			84.00		1.5552E+00		1.9521E+00
			85.00		1.5518E+00		1.9506E+00
			86.00		1.5427E+00		1.9524E+00
			87.00		1.5360E+00		1.9515E+00
			88.00		1.5258E+00		1.9506E+00
			89.00		1.5218E+00		1.9512E+00
			90.00		1.5136E+00		1.9485E+00
			91.00		1.4990E+00		1.9599E+00
			92.00		1.4979E+00		1.9539E+00
			93.00		1.4949E+00		1.9584E+00
			94.00		1.4879E+00		1.9518E+00
			95.00		1.4801E+00		1.9515E+00
			96.00		1.4753E+00		1.9497E+00
			97.00		1.4628E+00		1.9590E+00
			98.00		1.4551E+00		1.9584E+00
			99.00		1.4510E+00		1.9569E+00
			100.00		1.4486E+00		1.9539E+00
			101.00		1.4426E+00		1.9536E+00
			102.00		1.4370E+00		1.9503E+00
			103.00		1.4280E+00		1.9509E+00
			104.00		1.4190E+00		1.9554E+00
			105.00		1.4162E+00		1.9518E+00
			106.00		1.4039E+00		1.9593E+00
			107.00		1.3993E+00		1.9548E+00
			108.00		1.3944E+00		1.9512E+00
			109.00		1.3901E+00		1.9458E+00
			110.00		1.3791E+00		1.9509E+00
			111.00		1.3695E+00		1.9650E+00
			112.00		1.3655E+00		1.9566E+00
			113.00		1.3655E+00		1.9503E+00
			114.00		1.3520E+00		1.9617E+00
			115.00		1.3504E+00		1.9554E+00
			116.00		1.3469E+00		1.9503E+00
			117.00		1.3353E+00		1.9503E+00
			118.00		1.3306E+00		1.9500E+00
			119.00		1.3259E+00		1.9407E+00
			120.00		1.3192E+00		1.9455E+00
			121.00		1.3129E+00		1.9557E+00
			122.00		1.3063E+00		1.9542E+00
			123.00		1.2964E+00		1.9563E+00
			124.00		1.2913E+00		1.9611E+00
			125.00		1.2899E+00		1.9572E+00
			126.00		1.2833E+00		1.9515E+00
			127.00		1.2752E+00		1.9500E+00
			128.00		1.2705E+00		1.9545E+00
			129.00		1.2687E+00		1.9470E+00
			130.00		1.2570E+00		1.9527E+00
			131.00		1.2546E+00		1.9569E+00
			132.00		1.2463E+00		1.9563E+00
			133.00		1.2406E+00		1.9515E+00
			134.00		1.2358E+00		1.9557E+00
			135.00		1.2343E+00		1.9446E+00
			136.00		1.2243E+00		1.9491E+00
			137.00		1.2201E+00		1.9506E+00
			138.00		1.2154E+00		1.9500E+00
			139.00		1.2078E+00		1.9506E+00
			140.00		1.1995E+00		1.9545E+00
			141.00		1.1951E+00		1.9482E+00
			142.00		1.1862E+00		1.9512E+00
			143.00		1.1842E+00		1.9515E+00
			144.00		1.1823E+00		1.9503E+00
			145.00		1.1752E+00		1.9488E+00
			146.00		1.1686E+00		1.9533E+00
			147.00		1.1621E+00		1.9509E+00
			148.00		1.1608E+00		1.9479E+00
			149.00		1.1548E+00		1.9455E+00
			150.00		1.1467E+00		1.9512E+00
			151.00		1.1363E+00		1.9542E+00
			152.00		1.1376E+00		1.9509E+00
			153.00		1.1286E+00		1.9578E+00
			154.00		1.1267E+00		1.9515E+00
			155.00		1.1179E+00		1.9563E+00
			156.00		1.1144E+00		1.9482E+00
			157.00		1.1069E+00		1.9533E+00
			158.00		1.1085E+00		1.9524E+00
			159.00		1.0977E+00		1.9539E+00
			160.00		1.0943E+00		1.9509E+00
			161.00		1.0895E+00		1.9512E+00
			162.00		1.0821E+00		1.9503E+00
			163.00		1.0766E+00		1.9512E+00
			164.00		1.0748E+00		1.9479E+00
			165.00		1.0709E+00		1.9473E+00
			166.00		1.0648E+00		1.9530E+00
			167.00		1.0612E+00		1.9494E+00
			168.00		1.0538E+00		1.9587E+00
			169.00		1.0500E+00		1.9482E+00
			170.00		1.0463E+00		1.9503E+00
			171.00		1.0387E+00		1.9512E+00
			172.00		1.0358E+00		1.9524E+00
			173.00		1.0295E+00		1.9509E+00
			174.00		1.0265E+00		1.9497E+00
			175.00		1.0252E+00		1.9527E+00
			176.00		1.0168E+00		1.9503E+00
			177.00		1.0094E+00		1.9524E+00
			178.00		1.0062E+00		1.9500E+00
			179.00		999.08E-03		1.9494E+00
			180.00		997.38E-03		1.9479E+00
			181.00		990.76E-03		1.9491E+00
			182.00		989.85E-03		1.9506E+00
			183.00		985.11E-03		1.9542E+00
			184.00		978.05E-03		1.9545E+00
			185.00		975.60E-03		1.9548E+00
			186.00		965.39E-03		1.9590E+00
			187.00		965.42E-03		1.9521E+00
			188.00		961.72E-03		1.9512E+00
			189.00		955.89E-03		1.9521E+00
			190.00		954.27E-03		1.9485E+00
			191.00		948.00E-03		1.9443E+00
			192.00		943.67E-03		1.9491E+00
			193.00		938.04E-03		1.9512E+00
			194.00		933.52E-03		1.9539E+00
			195.00		926.93E-03		1.9542E+00
			196.00		923.24E-03		1.9542E+00
			197.00		920.90E-03		1.9494E+00
			198.00		917.18E-03		1.9524E+00
			199.00		910.91E-03		1.9530E+00
			200.00		906.71E-03		1.9488E+00
			201.00		902.79E-03		1.9473E+00
			202.00		900.14E-03		1.9527E+00
			203.00		895.63E-03		1.9518E+00
			204.00		887.90E-03		1.9509E+00
			205.00		886.20E-03		1.9482E+00
			206.00		880.84E-03		1.9536E+00
			207.00		874.27E-03		1.9518E+00
			208.00		870.41E-03		1.9539E+00
			209.00		871.06E-03		1.9521E+00
			210.00		864.84E-03		1.9554E+00
			211.00		859.19E-03		1.9473E+00
			212.00		860.46E-03		1.9521E+00
			213.00		853.32E-03		1.9491E+00
			214.00		849.58E-03		1.9485E+00
			215.00		850.51E-03		1.9506E+00
			216.00		843.78E-03		1.9530E+00
			217.00		838.94E-03		1.9521E+00
			218.00		835.69E-03		1.9536E+00
			219.00		828.90E-03		1.9533E+00
			220.00		825.77E-03		1.9560E+00
			221.00		819.20E-03		1.9497E+00
			222.00		819.15E-03		1.9524E+00
			223.00		814.55E-03		1.9542E+00
			224.00		811.76E-03		1.9491E+00
			225.00		807.06E-03		1.9452E+00
			226.00		803.38E-03		1.9500E+00
			227.00		800.34E-03		1.9533E+00
			228.00		795.72E-03		1.9503E+00
			229.00		789.17E-03		1.9509E+00
			230.00		788.70E-03		1.9479E+00
			231.00		785.33E-03		1.9425E+00
			232.00		779.48E-03		1.9536E+00
			233.00		776.50E-03		1.9530E+00
			234.00		774.19E-03		1.9503E+00
			235.00		771.98E-03		1.9485E+00
			236.00		764.88E-03		1.9509E+00
			237.00		761.32E-03		1.9545E+00
			238.00		756.61E-03		1.9512E+00
			239.00		757.10E-03		1.9440E+00
			240.00		751.31E-03		1.9494E+00
			241.00		749.69E-03		1.9464E+00
			242.00		746.77E-03		1.9476E+00
			243.00		742.43E-03		1.9509E+00
			244.00		737.28E-03		1.9572E+00
			245.00		735.50E-03		1.9554E+00
			246.00		730.34E-03		1.9536E+00
			247.00		726.28E-03		1.9542E+00
			248.00		723.78E-03		1.9506E+00
			249.00		722.20E-03		1.9503E+00
			250.00		717.40E-03		1.9512E+00
			251.00		714.97E-03		1.9503E+00
			252.00		710.30E-03		1.9551E+00
			253.00		707.16E-03		1.9536E+00
			254.00		704.57E-03		1.9548E+00
			255.00		700.18E-03		1.9482E+00
			256.00		697.00E-03		1.9485E+00
			257.00		695.97E-03		1.9449E+00
			258.00		690.23E-03		1.9476E+00
			259.00		686.56E-03		1.9506E+00
			260.00		685.98E-03		1.9470E+00
			261.00		682.09E-03		1.9449E+00
			262.00		679.54E-03		1.9416E+00
			263.00		676.98E-03		1.9485E+00
			264.00		671.02E-03		1.9524E+00
			265.00		667.08E-03		1.9491E+00
			266.00		667.08E-03		1.9455E+00
			267.00		663.02E-03		1.9479E+00
			268.00		658.72E-03		1.9515E+00
			269.00		656.36E-03		1.9494E+00
			270.00		651.65E-03		1.9575E+00
			271.00		650.38E-03		1.9530E+00
			272.00		649.47E-03		1.9479E+00
			273.00		646.35E-03		1.9545E+00
			274.00		641.39E-03		1.9542E+00
			275.00		636.56E-03		1.9497E+00
			276.00		638.56E-03		1.9464E+00
			277.00		636.11E-03		1.9407E+00
			278.00		631.16E-03		1.9431E+00
			279.00		625.92E-03		1.9464E+00
			280.00		625.21E-03		1.9443E+00
			281.00		621.80E-03		1.9482E+00
			282.00		619.62E-03		1.9449E+00
			283.00		615.66E-03		1.9467E+00
			284.00		613.78E-03		1.9512E+00
			285.00		611.97E-03		1.9452E+00
			286.00		607.61E-03		1.9473E+00
			287.00		601.91E-03		1.9488E+00
			288.00		600.28E-03		1.9416E+00
			289.00		597.32E-03		1.9482E+00
			290.00		595.93E-03		1.9437E+00
			291.00		590.88E-03		1.9476E+00
			292.00		590.70E-03		1.9482E+00
			293.00		587.17E-03		1.9497E+00
			294.00		586.37E-03		1.9452E+00
			295.00		582.05E-03		1.9488E+00
			296.00		578.40E-03		1.9476E+00
			297.00		577.41E-03		1.9494E+00
			298.00		575.67E-03		1.9485E+00
			299.00		572.18E-03		1.9473E+00
			300.00		567.28E-03		1.9530E+00
		END_DATA
	END_SCAN  1
END_SCAN_DATA
