BEGIN_SCAN_DATA
	FORMAT=CC-Export V1.9                  
	FILE_CREATION_DATE=17-Aug-2022 18:06:23
	LAST_MODIFIED=17-Aug-2022 18:06:23
	BEGIN_SCAN  1
		TASK_NAME=tba PDD Profiles
		PROGRAM=WaterTankScans
		MEAS_DATE=17-Aug-2022 18:05:29
		LINAC=L3 ELEKTA SYNERGY
		MODALITY=X
		ISOCENTER=1000.00
		INPLANE_AXIS=Inplane
		CROSSPLANE_AXIS=Crossplane
		DEPTH_AXIS=Depth
		INPLANE_AXIS_DIR=GUN_TARGET
		CROSSPLANE_AXIS_DIR=LEFT_RIGHT
		DEPTH_AXIS_DIR=UP_DOWN
		ENERGY=10.00
		NOMINAL_DMAX=25.00
		SSD=1000.00
		SCD=450.00
		BLOCK=0
		WEDGE_ANGLE=0.00
		FIELD_INPLANE=100.00
		FIELD_CROSSPLANE=100.00
		FIELD_TYPE=RECTANGULAR
		GANTRY=0.00
		GANTRY_UPRIGHT_POSITION=0
		GANTRY_ROTATION=CW
		COLL_ANGLE=0.00
		COLL_OFFSET_INPLANE=0.00
		COLL_OFFSET_CROSSPLANE=0.00
		SCAN_DEVICE=BeamScan
		SCAN_DEVICE_SETUP=BARA_LEFT_RIGHT
		ELECTROMETER=BeamScan
		RANGE_FIELD=LOW
		RANGE_REFERENCE=LOW
		DETECTOR=THIMBLE_CHAMBER
		DETECTOR_SUBCODE=SEMIFLEX
		DETECTOR_RADIUS=2.40
		DETECTOR_NAME=PTW Demo Semiflex 3D
		DETECTOR_SN=Demo
		DETECTOR_CALIBRATION=500000000.00
		DETECTOR_IS_CALIBRATED=1
		DETECTOR_REFERENCE=THIMBLE_CHAMBER
		DETECTOR_REFERENCE_SUBCODE=SEMIFLEX
		DETECTOR_REFERENCE_RADIUS=2.40
		DETECTOR_REFERENCE_NAME=PTW Demo Semiflex 3D
		DETECTOR_REFERENCE_SN=Demo
		DETECTOR_REFERENCE_IS_CALIBRATED=1
		DETECTOR_REFERENCE_CALIBRATION=500000000.00
		DETECTOR_HV=400.0
		DETECTOR_REFERENCE_HV=400.0
		DETECTOR_ORIENTATION=HORIZONTAL
		FILTER=FF
		SCAN_SPEED_PROFILE=10.00
		SCAN_PROF_SPEED_DEP=NONE
		SCAN_SPEED_PDD=10.00
		SCAN_PDD_SPEED_DEP=NONE
		REF_FIELD_DEPTH=0.00
		REF_FIELD_DEFINED=ISOCENTER
		REF_FIELD_INPLANE=100.00
		REF_FIELD_CROSSPLANE=100.00
		REF_SCAN_POSITIONS=0.00;1.00;2.00;3.00;4.00;5.00;6.00;7.00;8.00;9.00;10.00;11.00;12.00;13.00;14.00;15.00;16.00;17.00;18.00;19.00;20.00;21.00;22.00;23.00;24.00;25.00;26.00;27.00;28.00;29.00;30.00;31.00;32.00;33.00;34.00;35.00;36.00;37.00;38.00;39.00;40.00;41.00;42.00;43.00;44.00;45.00;46.00;47.00;48.00;49.00;50.00;51.00;52.00;53.00;54.00;55.00;56.00;57.00;58.00;59.00;60.00;61.00;62.00;63.00;64.00;65.00;66.00;67.00;68.00;69.00;70.00;71.00;72.00;73.00;74.00;75.00;76.00;77.00;78.00;79.00;80.00;81.00;82.00;83.00;84.00;85.00;86.00;87.00;88.00;89.00;90.00;91.00;92.00;93.00;94.00;95.00;96.00;97.00;98.00;99.00;100.00;101.00;102.00;103.00;104.00;105.00;106.00;107.00;108.00;109.00;110.00;111.00;112.00;113.00;114.00;115.00;116.00;117.00;118.00;119.00;120.00;121.00;122.00;123.00;124.00;125.00;126.00;127.00;128.00;129.00;130.00;131.00;132.00;133.00;134.00;135.00;136.00;137.00;138.00;139.00;140.00;141.00;142.00;143.00;144.00;145.00;146.00;147.00;148.00;149.00;150.00;151.00;152.00;153.00;154.00;155.00;156.00;157.00;158.00;159.00;160.00;161.00;162.00;163.00;164.00;165.00;166.00;167.00;168.00;169.00;170.00;171.00;172.00;173.00;174.00;175.00;176.00;177.00;178.00;179.00;180.00;181.00;182.00;183.00;184.00;185.00;186.00;187.00;188.00;189.00;190.00;191.00;192.00;193.00;194.00;195.00;196.00;197.00;198.00;199.00;200.00;201.00;202.00;203.00;204.00;205.00;206.00;207.00;208.00;209.00;210.00;211.00;212.00;213.00;214.00;215.00;216.00;217.00;218.00;219.00;220.00;221.00;222.00;223.00;224.00;225.00;226.00;227.00;228.00;229.00;230.00;231.00;232.00;233.00;234.00;235.00;236.00;237.00;238.00;239.00;240.00;241.00;242.00;243.00;244.00;245.00;246.00;247.00;248.00;249.00;250.00;251.00;252.00;253.00;254.00;255.00;256.00;257.00;258.00;259.00;260.00;261.00;262.00;263.00;264.00;265.00;266.00;267.00;268.00;269.00;270.00;271.00;272.00;273.00;274.00;275.00;276.00;277.00;278.00;279.00;280.00;281.00;282.00;283.00;284.00;285.00;286.00;287.00;288.00;289.00;290.00;291.00;292.00;293.00;294.00;295.00;296.00;297.00;298.00;299.00;300.00;
		SCAN_CURVETYPE=PDD
		SCAN_OFFAXIS_INPLANE=0.00
		SCAN_OFFAXIS_CROSSPLANE=0.00
		SCAN_ANGLE=0.00
		SCAN_DIAGONAL=NOT_DIAGONAL
		SCAN_DIRECTION=NEGATIVE
		MEAS_MEDIUM=WATER
		MEAS_PRESET=MEAS_CONTINUOUS_REFERENCE_SCAN
		MEAS_TIME=0.100
		MEAS_UNIT=A.U.
		PRESSURE=1013.25
		TEMPERATURE=20.00
		NORM_TEMPERATURE=20.00
		CORRECTION_FACTOR=1.0000
		EXPECTED_MAX_DOSE_RATE=3.00
		BEGIN_DATA
			0.00		952.58E-03		1.7145E+00
			1.00		1.0258E+00		1.7184E+00
			2.00		1.1723E+00		1.7133E+00
			3.00		1.4117E+00		1.7148E+00
			4.00		1.6178E+00		1.7103E+00
			5.00		1.7719E+00		1.7100E+00
			6.00		1.8953E+00		1.7142E+00
			7.00		2.0007E+00		1.7139E+00
			8.00		2.0947E+00		1.7115E+00
			9.00		2.1699E+00		1.7061E+00
			10.00		2.2351E+00		1.7100E+00
			11.00		2.2915E+00		1.7124E+00
			12.00		2.3232E+00		1.7136E+00
			13.00		2.3506E+00		1.7115E+00
			14.00		2.3830E+00		1.7121E+00
			15.00		2.4031E+00		1.7178E+00
			16.00		2.4209E+00		1.7151E+00
			17.00		2.4405E+00		1.7148E+00
			18.00		2.4507E+00		1.7175E+00
			19.00		2.4627E+00		1.7103E+00
			20.00		2.4590E+00		1.7178E+00
			21.00		2.4628E+00		1.7139E+00
			22.00		2.4658E+00		1.7130E+00
			23.00		2.4655E+00		1.7157E+00
			24.00		2.4545E+00		1.7160E+00
			25.00		2.4623E+00		1.7106E+00
			26.00		2.4584E+00		1.7133E+00
			27.00		2.4527E+00		1.7124E+00
			28.00		2.4470E+00		1.7115E+00
			29.00		2.4339E+00		1.7133E+00
			30.00		2.4384E+00		1.7052E+00
			31.00		2.4274E+00		1.7142E+00
			32.00		2.4158E+00		1.7112E+00
			33.00		2.4183E+00		1.7082E+00
			34.00		2.3980E+00		1.7127E+00
			35.00		2.3982E+00		1.7100E+00
			36.00		2.3795E+00		1.7121E+00
			37.00		2.3801E+00		1.7079E+00
			38.00		2.3680E+00		1.7103E+00
			39.00		2.3529E+00		1.7136E+00
			40.00		2.3446E+00		1.7133E+00
			41.00		2.3371E+00		1.7124E+00
			42.00		2.3248E+00		1.7163E+00
			43.00		2.3183E+00		1.7133E+00
			44.00		2.3029E+00		1.7157E+00
			45.00		2.2966E+00		1.7112E+00
			46.00		2.2860E+00		1.7139E+00
			47.00		2.2719E+00		1.7127E+00
			48.00		2.2652E+00		1.7124E+00
			49.00		2.2516E+00		1.7148E+00
			50.00		2.2482E+00		1.7094E+00
			51.00		2.2339E+00		1.7190E+00
			52.00		2.2275E+00		1.7145E+00
			53.00		2.2248E+00		1.7139E+00
			54.00		2.2181E+00		1.7109E+00
			55.00		2.2017E+00		1.7196E+00
			56.00		2.1893E+00		1.7211E+00
			57.00		2.1854E+00		1.7118E+00
			58.00		2.1733E+00		1.7172E+00
			59.00		2.1626E+00		1.7160E+00
			60.00		2.1560E+00		1.7157E+00
			61.00		2.1442E+00		1.7139E+00
			62.00		2.1370E+00		1.7127E+00
			63.00		2.1314E+00		1.7073E+00
			64.00		2.1188E+00		1.7118E+00
			65.00		2.1108E+00		1.7112E+00
			66.00		2.0989E+00		1.7166E+00
			67.00		2.0932E+00		1.7127E+00
			68.00		2.0837E+00		1.7133E+00
			69.00		2.0713E+00		1.7163E+00
			70.00		2.0701E+00		1.7115E+00
			71.00		2.0578E+00		1.7130E+00
			72.00		2.0461E+00		1.7169E+00
			73.00		2.0435E+00		1.7103E+00
			74.00		2.0263E+00		1.7130E+00
			75.00		2.0203E+00		1.7151E+00
			76.00		2.0081E+00		1.7121E+00
			77.00		2.0042E+00		1.7094E+00
			78.00		1.9919E+00		1.7124E+00
			79.00		1.9863E+00		1.7142E+00
			80.00		1.9724E+00		1.7172E+00
			81.00		1.9671E+00		1.7127E+00
			82.00		1.9555E+00		1.7121E+00
			83.00		1.9496E+00		1.7142E+00
			84.00		1.9457E+00		1.7115E+00
			85.00		1.9345E+00		1.7121E+00
			86.00		1.9186E+00		1.7169E+00
			87.00		1.9136E+00		1.7151E+00
			88.00		1.9116E+00		1.7106E+00
			89.00		1.8983E+00		1.7115E+00
			90.00		1.8971E+00		1.7079E+00
			91.00		1.8838E+00		1.7088E+00
			92.00		1.8726E+00		1.7094E+00
			93.00		1.8613E+00		1.7133E+00
			94.00		1.8548E+00		1.7112E+00
			95.00		1.8487E+00		1.7136E+00
			96.00		1.8375E+00		1.7061E+00
			97.00		1.8291E+00		1.7172E+00
			98.00		1.8155E+00		1.7169E+00
			99.00		1.8104E+00		1.7151E+00
			100.00		1.8074E+00		1.7163E+00
			101.00		1.7978E+00		1.7154E+00
			102.00		1.7858E+00		1.7169E+00
			103.00		1.7826E+00		1.7115E+00
			104.00		1.7669E+00		1.7166E+00
			105.00		1.7663E+00		1.7121E+00
			106.00		1.7520E+00		1.7226E+00
			107.00		1.7517E+00		1.7160E+00
			108.00		1.7424E+00		1.7142E+00
			109.00		1.7319E+00		1.7133E+00
			110.00		1.7235E+00		1.7196E+00
			111.00		1.7175E+00		1.7163E+00
			112.00		1.7093E+00		1.7139E+00
			113.00		1.6988E+00		1.7142E+00
			114.00		1.6968E+00		1.7139E+00
			115.00		1.6884E+00		1.7130E+00
			116.00		1.6823E+00		1.7112E+00
			117.00		1.6727E+00		1.7121E+00
			118.00		1.6657E+00		1.7121E+00
			119.00		1.6548E+00		1.7166E+00
			120.00		1.6450E+00		1.7178E+00
			121.00		1.6404E+00		1.7151E+00
			122.00		1.6335E+00		1.7106E+00
			123.00		1.6238E+00		1.7151E+00
			124.00		1.6145E+00		1.7181E+00
			125.00		1.6106E+00		1.7136E+00
			126.00		1.6071E+00		1.7112E+00
			127.00		1.5967E+00		1.7160E+00
			128.00		1.5887E+00		1.7142E+00
			129.00		1.5820E+00		1.7175E+00
			130.00		1.5751E+00		1.7166E+00
			131.00		1.5666E+00		1.7160E+00
			132.00		1.5656E+00		1.7160E+00
			133.00		1.5505E+00		1.7172E+00
			134.00		1.5471E+00		1.7118E+00
			135.00		1.5396E+00		1.7124E+00
			136.00		1.5348E+00		1.7091E+00
			137.00		1.5292E+00		1.7091E+00
			138.00		1.5189E+00		1.7130E+00
			139.00		1.5097E+00		1.7133E+00
			140.00		1.5013E+00		1.7139E+00
			141.00		1.4978E+00		1.7157E+00
			142.00		1.4866E+00		1.7208E+00
			143.00		1.4838E+00		1.7151E+00
			144.00		1.4722E+00		1.7193E+00
			145.00		1.4668E+00		1.7160E+00
			146.00		1.4623E+00		1.7049E+00
			147.00		1.4546E+00		1.7145E+00
			148.00		1.4493E+00		1.7112E+00
			149.00		1.4402E+00		1.7148E+00
			150.00		1.4341E+00		1.7082E+00
			151.00		1.4285E+00		1.7112E+00
			152.00		1.4218E+00		1.7184E+00
			153.00		1.4160E+00		1.7127E+00
			154.00		1.4093E+00		1.7142E+00
			155.00		1.4024E+00		1.7154E+00
			156.00		1.3929E+00		1.7163E+00
			157.00		1.3895E+00		1.7130E+00
			158.00		1.3847E+00		1.7142E+00
			159.00		1.3825E+00		1.7058E+00
			160.00		1.3693E+00		1.7100E+00
			161.00		1.3637E+00		1.7097E+00
			162.00		1.3591E+00		1.7100E+00
			163.00		1.3510E+00		1.7130E+00
			164.00		1.3461E+00		1.7139E+00
			165.00		1.3364E+00		1.7133E+00
			166.00		1.3334E+00		1.7214E+00
			167.00		1.3274E+00		1.7160E+00
			168.00		1.3175E+00		1.7166E+00
			169.00		1.3121E+00		1.7127E+00
			170.00		1.3035E+00		1.7169E+00
			171.00		1.2979E+00		1.7208E+00
			172.00		1.2973E+00		1.7145E+00
			173.00		1.2881E+00		1.7130E+00
			174.00		1.2837E+00		1.7079E+00
			175.00		1.2781E+00		1.7118E+00
			176.00		1.2695E+00		1.7157E+00
			177.00		1.2655E+00		1.7133E+00
			178.00		1.2568E+00		1.7088E+00
			179.00		1.2521E+00		1.7133E+00
			180.00		1.2455E+00		1.7190E+00
			181.00		1.2400E+00		1.7163E+00
			182.00		1.2368E+00		1.7193E+00
			183.00		1.2308E+00		1.7154E+00
			184.00		1.2223E+00		1.7139E+00
			185.00		1.2197E+00		1.7148E+00
			186.00		1.2118E+00		1.7142E+00
			187.00		1.2046E+00		1.7166E+00
			188.00		1.2020E+00		1.7124E+00
			189.00		1.1942E+00		1.7160E+00
			190.00		1.1892E+00		1.7175E+00
			191.00		1.1813E+00		1.7160E+00
			192.00		1.1787E+00		1.7160E+00
			193.00		1.1732E+00		1.7151E+00
			194.00		1.1699E+00		1.7124E+00
			195.00		1.1617E+00		1.7181E+00
			196.00		1.1551E+00		1.7157E+00
			197.00		1.1513E+00		1.7166E+00
			198.00		1.1467E+00		1.7118E+00
			199.00		1.1432E+00		1.7142E+00
			200.00		1.1389E+00		1.7124E+00
			201.00		1.1309E+00		1.7160E+00
			202.00		1.1262E+00		1.7142E+00
			203.00		1.1230E+00		1.7121E+00
			204.00		1.1140E+00		1.7136E+00
			205.00		1.1091E+00		1.7130E+00
			206.00		1.1096E+00		1.7046E+00
			207.00		1.0956E+00		1.7127E+00
			208.00		1.0942E+00		1.7190E+00
			209.00		1.0922E+00		1.7181E+00
			210.00		1.0884E+00		1.7133E+00
			211.00		1.0796E+00		1.7184E+00
			212.00		1.0771E+00		1.7121E+00
			213.00		1.0680E+00		1.7151E+00
			214.00		1.0643E+00		1.7124E+00
			215.00		1.0586E+00		1.7148E+00
			216.00		1.0542E+00		1.7211E+00
			217.00		1.0486E+00		1.7154E+00
			218.00		1.0440E+00		1.7187E+00
			219.00		1.0422E+00		1.7133E+00
			220.00		1.0369E+00		1.7079E+00
			221.00		1.0323E+00		1.7088E+00
			222.00		1.0229E+00		1.7184E+00
			223.00		1.0164E+00		1.7205E+00
			224.00		1.0150E+00		1.7160E+00
			225.00		1.0084E+00		1.7181E+00
			226.00		1.0035E+00		1.7112E+00
			227.00		1.0040E+00		1.7121E+00
			228.00		994.41E-03		1.7169E+00
			229.00		991.77E-03		1.7124E+00
			230.00		990.37E-03		1.7133E+00
			231.00		980.27E-03		1.7184E+00
			232.00		974.73E-03		1.7211E+00
			233.00		970.51E-03		1.7193E+00
			234.00		967.16E-03		1.7172E+00
			235.00		963.31E-03		1.7172E+00
			236.00		958.29E-03		1.7190E+00
			237.00		955.94E-03		1.7160E+00
			238.00		955.14E-03		1.7121E+00
			239.00		948.87E-03		1.7133E+00
			240.00		939.35E-03		1.7163E+00
			241.00		940.44E-03		1.7127E+00
			242.00		938.81E-03		1.7112E+00
			243.00		929.96E-03		1.7133E+00
			244.00		928.73E-03		1.7133E+00
			245.00		921.85E-03		1.7160E+00
			246.00		917.32E-03		1.7127E+00
			247.00		916.46E-03		1.7094E+00
			248.00		909.89E-03		1.7145E+00
			249.00		900.40E-03		1.7229E+00
			250.00		898.83E-03		1.7199E+00
			251.00		894.38E-03		1.7184E+00
			252.00		889.92E-03		1.7169E+00
			253.00		885.57E-03		1.7172E+00
			254.00		883.85E-03		1.7124E+00
			255.00		879.22E-03		1.7139E+00
			256.00		874.69E-03		1.7094E+00
			257.00		870.48E-03		1.7163E+00
			258.00		866.12E-03		1.7142E+00
			259.00		863.34E-03		1.7145E+00
			260.00		858.77E-03		1.7163E+00
			261.00		856.07E-03		1.7154E+00
			262.00		851.50E-03		1.7172E+00
			263.00		850.71E-03		1.7121E+00
			264.00		843.74E-03		1.7145E+00
			265.00		839.34E-03		1.7160E+00
			266.00		837.58E-03		1.7178E+00
			267.00		834.44E-03		1.7124E+00
			268.00		832.11E-03		1.7100E+00
			269.00		822.74E-03		1.7178E+00
			270.00		820.67E-03		1.7130E+00
			271.00		813.35E-03		1.7166E+00
			272.00		813.10E-03		1.7127E+00
			273.00		808.52E-03		1.7187E+00
			274.00		804.89E-03		1.7175E+00
			275.00		802.91E-03		1.7139E+00
			276.00		798.33E-03		1.7196E+00
			277.00		794.30E-03		1.7166E+00
			278.00		793.74E-03		1.7163E+00
			279.00		787.66E-03		1.7166E+00
			280.00		783.46E-03		1.7124E+00
			281.00		779.86E-03		1.7103E+00
			282.00		777.64E-03		1.7175E+00
			283.00		772.23E-03		1.7175E+00
			284.00		768.83E-03		1.7208E+00
			285.00		765.74E-03		1.7199E+00
			286.00		761.66E-03		1.7169E+00
			287.00		758.36E-03		1.7145E+00
			288.00		754.59E-03		1.7163E+00
			289.00		749.91E-03		1.7202E+00
			290.00		747.94E-03		1.7127E+00
			291.00		744.18E-03		1.7133E+00
			292.00		741.14E-03		1.7187E+00
			293.00		735.17E-03		1.7241E+00
			294.00		737.47E-03		1.7118E+00
			295.00		731.40E-03		1.7133E+00
			296.00		730.96E-03		1.7139E+00
			297.00		723.50E-03		1.7208E+00
			298.00		719.58E-03		1.7160E+00
			299.00		717.13E-03		1.7202E+00
			300.00		713.59E-03		1.7199E+00
		END_DATA
	END_SCAN  1
END_SCAN_DATA
