BEGIN_SCAN_DATA
	FORMAT=CC-Export V1.9                  
	FILE_CREATION_DATE=20-May-2016 11:03:57
	LAST_MODIFIED=20-May-2016 11:03:57
	BEGIN_SCAN  1
		TASK_NAME=tba PDD Profiles
		PROGRAM=tbaScan
		COMMENT=QA measurement with MP3
		MEAS_DATE=20-May-2016 11:01:05
		LINAC=LINAC 1 ELEKTA 
		MODALITY=X
		ISOCENTER=1000.00
		INPLANE_AXIS=Inplane
		CROSSPLANE_AXIS=Crossplane
		DEPTH_AXIS=Depth
		INPLANE_AXIS_DIR=TARGET_GUN
		CROSSPLANE_AXIS_DIR=LEFT_RIGHT
		DEPTH_AXIS_DIR=UP_DOWN
		ENERGY=10.00
		NOMINAL_DMAX=25.00
		SSD=1000.00
		SCD=450.00
		BLOCK=0
		WEDGE_ANGLE=0.00
		FIELD_INPLANE=100.00
		FIELD_CROSSPLANE=100.00
		FIELD_TYPE=RECTANGULAR
		GANTRY=0.00
		GANTRY_UPRIGHT_POSITION=0
		GANTRY_ROTATION=CW
		COLL_ANGLE=0.00
		COLL_OFFSET_INPLANE=0.00
		COLL_OFFSET_CROSSPLANE=0.00
		SCAN_DEVICE=MP3
		SCAN_DEVICE_SETUP=BARA_LEFT_RIGHT
		ELECTROMETER=TANDEM
		RANGE_FIELD=AUTO
		RANGE_REFERENCE=AUTO
		DETECTOR=THIMBLE_CHAMBER
		DETECTOR_RADIUS=3.05
		DETECTOR_NAME=PTW Demo Farmer
		DETECTOR_SN=Demo
		DETECTOR_CALIBRATION=50000000.00
		DETECTOR_IS_CALIBRATED=1
		DETECTOR_REFERENCE_IS_CALIBRATED=0
		DETECTOR_REFERENCE_CALIBRATION=300000000.00
		DETECTOR_HV=400.0
		DETECTOR_REFERENCE_HV=400.0
		REF_FIELD_DEPTH=0.00
		REF_FIELD_DEFINED=ISOCENTER
		REF_FIELD_INPLANE=300.00
		REF_FIELD_CROSSPLANE=300.00
		REF_SCAN_POSITIONS=-5.00;-4.00;-3.00;-2.00;-1.00;0.00;1.00;2.00;3.00;4.00;5.00;6.00;7.00;8.00;9.00;10.00;11.00;12.00;13.00;14.00;15.00;16.00;17.00;18.00;19.00;20.00;21.00;22.00;23.00;24.00;25.00;26.00;27.00;28.00;29.00;30.00;31.00;32.00;33.00;34.00;35.00;36.00;37.00;38.00;39.00;40.00;41.00;42.00;43.00;44.00;45.00;46.00;47.00;48.00;49.00;50.00;53.00;56.00;59.00;62.00;65.00;68.00;71.00;74.00;77.00;80.00;83.00;86.00;89.00;92.00;95.00;98.00;101.00;104.00;107.00;110.00;113.00;116.00;119.00;122.00;125.00;128.00;131.00;134.00;137.00;140.00;143.00;146.00;149.00;152.00;155.00;158.00;161.00;164.00;167.00;170.00;173.00;176.00;179.00;182.00;185.00;188.00;191.00;194.00;197.00;200.00;203.00;206.00;209.00;212.00;215.00;218.00;221.00;224.00;227.00;230.00;233.00;236.00;239.00;242.00;245.00;248.00;251.00;254.00;257.00;260.00;263.00;266.00;269.00;272.00;275.00;278.00;281.00;284.00;287.00;290.00;293.00;296.00;299.00;300.00;
		SCAN_CURVETYPE=PDD
		SCAN_OFFAXIS_INPLANE=0.00
		SCAN_OFFAXIS_CROSSPLANE=0.00
		SCAN_ANGLE=0.00
		SCAN_DIAGONAL=NOT_DIAGONAL
		SCAN_DIRECTION=NEGATIVE
		MEAS_MEDIUM=WATER
		MEAS_PRESET=REFERENCE_DOSEMETER
		MEAS_TIME=0.100
		MEAS_UNIT=A.U.
		SCAN_SPEEDS=20.00; 5.00;40.00; 5.00;100.00; 5.00;400.00; 5.00;
		DELAY_TIMES=20.00; 0.200;150.00; 0.200;400.00; 0.200;
		PRESSURE=1013.20
		TEMPERATURE=20.00
		NORM_TEMPERATURE=20.00
		CORRECTION_FACTOR=1.0000
		EXPECTED_MAX_DOSE_RATE=3.00
		BEGIN_DATA
			-5.00		128.42E-03		2.0395E+00
			-4.00		128.79E-03		2.0359E+00
			-3.00		130.53E-03		2.0341E+00
			-2.00		131.98E-03		2.0413E+00
			-1.00		135.69E-03		2.0341E+00
			0.00		139.85E-03		2.0359E+00
			1.00		146.99E-03		2.0431E+00
			2.00		165.78E-03		2.0377E+00
			3.00		200.94E-03		2.0395E+00
			4.00		234.80E-03		2.0431E+00
			5.00		260.52E-03		2.0395E+00
			6.00		279.94E-03		2.0395E+00
			7.00		298.00E-03		2.0377E+00
			8.00		311.69E-03		2.0377E+00
			9.00		324.03E-03		2.0323E+00
			10.00		333.33E-03		2.0395E+00
			11.00		341.74E-03		2.0341E+00
			12.00		347.91E-03		2.0377E+00
			13.00		353.82E-03		2.0359E+00
			14.00		357.21E-03		2.0359E+00
			15.00		359.81E-03		2.0395E+00
			16.00		363.22E-03		2.0377E+00
			17.00		366.46E-03		2.0377E+00
			18.00		367.31E-03		2.0395E+00
			19.00		369.03E-03		2.0341E+00
			20.00		369.19E-03		2.0413E+00
			21.00		370.58E-03		2.0377E+00
			22.00		370.65E-03		2.0341E+00
			23.00		371.27E-03		2.0323E+00
			24.00		370.40E-03		2.0395E+00
			25.00		369.73E-03		2.0359E+00
			26.00		368.82E-03		2.0377E+00
			27.00		368.58E-03		2.0341E+00
			28.00		366.93E-03		2.0359E+00
			29.00		364.46E-03		2.0431E+00
			30.00		364.99E-03		2.0377E+00
			31.00		364.60E-03		2.0341E+00
			32.00		362.09E-03		2.0341E+00
			33.00		361.16E-03		2.0377E+00
			34.00		359.84E-03		2.0377E+00
			35.00		358.53E-03		2.0359E+00
			36.00		357.14E-03		2.0413E+00
			37.00		356.17E-03		2.0359E+00
			38.00		354.22E-03		2.0395E+00
			39.00		353.96E-03		2.0359E+00
			40.00		352.65E-03		2.0341E+00
			41.00		351.05E-03		2.0323E+00
			42.00		348.36E-03		2.0359E+00
			43.00		347.19E-03		2.0359E+00
			44.00		345.85E-03		2.0377E+00
			45.00		344.25E-03		2.0341E+00
			46.00		342.76E-03		2.0377E+00
			47.00		341.74E-03		2.0341E+00
			48.00		339.95E-03		2.0395E+00
			49.00		338.64E-03		2.0341E+00
			50.00		336.87E-03		2.0377E+00
			53.00		333.19E-03		2.0377E+00
			56.00		329.06E-03		2.0359E+00
			59.00		324.64E-03		2.0359E+00
			62.00		320.06E-03		2.0341E+00
			65.00		316.64E-03		2.0305E+00
			68.00		312.37E-03		2.0323E+00
			71.00		308.07E-03		2.0305E+00
			74.00		303.83E-03		2.0341E+00
			77.00		300.03E-03		2.0359E+00
			80.00		296.13E-03		2.0323E+00
			83.00		291.67E-03		2.0377E+00
			86.00		287.10E-03		2.0377E+00
			89.00		283.88E-03		2.0323E+00
			92.00		280.24E-03		2.0341E+00
			95.00		276.45E-03		2.0359E+00
			98.00		273.36E-03		2.0359E+00
			101.00		269.43E-03		2.0377E+00
			104.00		265.23E-03		2.0395E+00
			107.00		261.93E-03		2.0377E+00
			110.00		257.96E-03		2.0341E+00
			113.00		254.64E-03		2.0359E+00
			116.00		250.96E-03		2.0359E+00
			119.00		247.42E-03		2.0359E+00
			122.00		244.26E-03		2.0377E+00
			125.00		240.56E-03		2.0341E+00
			128.00		237.40E-03		2.0359E+00
			131.00		234.31E-03		2.0359E+00
			134.00		231.62E-03		2.0323E+00
			137.00		228.33E-03		2.0287E+00
			140.00		224.48E-03		2.0341E+00
			143.00		221.83E-03		2.0395E+00
			146.00		218.49E-03		2.0377E+00
			149.00		215.34E-03		2.0341E+00
			152.00		212.58E-03		2.0323E+00
			155.00		209.63E-03		2.0323E+00
			158.00		206.26E-03		2.0305E+00
			161.00		203.83E-03		2.0341E+00
			164.00		200.29E-03		2.0341E+00
			167.00		197.70E-03		2.0305E+00
			170.00		194.42E-03		2.0323E+00
			173.00		192.21E-03		2.0323E+00
			176.00		189.86E-03		2.0305E+00
			179.00		186.63E-03		2.0287E+00
			182.00		184.71E-03		2.0287E+00
			185.00		182.05E-03		2.0287E+00
			188.00		179.50E-03		2.0341E+00
			191.00		176.71E-03		2.0323E+00
			194.00		174.22E-03		2.0269E+00
			197.00		171.99E-03		2.0287E+00
			200.00		169.62E-03		2.0287E+00
			203.00		167.26E-03		2.0323E+00
			206.00		164.30E-03		2.0323E+00
			209.00		161.94E-03		2.0323E+00
			212.00		159.73E-03		2.0323E+00
			215.00		157.80E-03		2.0305E+00
			218.00		155.31E-03		2.0341E+00
			221.00		153.38E-03		2.0323E+00
			224.00		150.88E-03		2.0341E+00
			227.00		149.08E-03		2.0305E+00
			230.00		146.89E-03		2.0323E+00
			233.00		145.09E-03		2.0305E+00
			236.00		143.03E-03		2.0305E+00
			239.00		140.66E-03		2.0305E+00
			242.00		138.74E-03		2.0305E+00
			245.00		137.14E-03		2.0323E+00
			248.00		135.29E-03		2.0269E+00
			251.00		133.07E-03		2.0269E+00
			254.00		131.17E-03		2.0287E+00
			257.00		129.63E-03		2.0251E+00
			260.00		127.89E-03		2.0269E+00
			263.00		126.03E-03		2.0305E+00
			266.00		124.00E-03		2.0251E+00
			269.00		122.45E-03		2.0287E+00
			272.00		120.89E-03		2.0251E+00
			275.00		119.07E-03		2.0233E+00
			278.00		117.48E-03		2.0251E+00
			281.00		115.50E-03		2.0287E+00
			284.00		114.12E-03		2.0269E+00
			287.00		112.44E-03		2.0251E+00
			290.00		111.16E-03		2.0269E+00
			293.00		109.53E-03		2.0215E+00
			296.00		107.99E-03		2.0197E+00
			299.00		106.22E-03		2.0251E+00
			300.00		105.72E-03		2.0233E+00
		END_DATA
	END_SCAN  1
END_SCAN_DATA
