BEGIN_SCAN_DATA
	FORMAT=CC-Export V1.9                  
	FILE_CREATION_DATE=19-Nov-2022 12:46:34
	LAST_MODIFIED=19-Nov-2022 12:46:34
	BEGIN_SCAN  1
		TASK_NAME=tba PDD Profiles
		PROGRAM=WaterTankScans
		MEAS_DATE=19-Nov-2022 12:45:33
		LINAC=L1 ELEKTA VERSA
		MODALITY=X
		ISOCENTER=1000.00
		INPLANE_AXIS=Inplane
		CROSSPLANE_AXIS=Crossplane
		DEPTH_AXIS=Depth
		INPLANE_AXIS_DIR=GUN_TARGET
		CROSSPLANE_AXIS_DIR=LEFT_RIGHT
		DEPTH_AXIS_DIR=UP_DOWN
		ENERGY=10.00
		NOMINAL_DMAX=25.00
		SSD=1000.00
		BLOCK=0
		WEDGE_ANGLE=0.00
		FIELD_INPLANE=100.00
		FIELD_CROSSPLANE=100.00
		FIELD_TYPE=RECTANGULAR
		GANTRY=0.00
		GANTRY_UPRIGHT_POSITION=0
		GANTRY_ROTATION=CW
		COLL_ANGLE=0.00
		COLL_OFFSET_INPLANE=0.00
		COLL_OFFSET_CROSSPLANE=0.00
		SCAN_DEVICE=BeamScan
		SCAN_DEVICE_SETUP=BARA_LEFT_RIGHT
		ELECTROMETER=BeamScan
		RANGE_FIELD=LOW
		RANGE_REFERENCE=LOW
		DETECTOR=THIMBLE_CHAMBER
		DETECTOR_SUBCODE=SEMIFLEX
		DETECTOR_RADIUS=2.40
		DETECTOR_NAME=PTW Semiflex 3D (Field)
		DETECTOR_SN=141799
		DETECTOR_CALIBRATION=500000000.00
		DETECTOR_IS_CALIBRATED=1
		DETECTOR_REFERENCE=THIMBLE_CHAMBER
		DETECTOR_REFERENCE_SUBCODE=SEMIFLEX
		DETECTOR_REFERENCE_RADIUS=2.40
		DETECTOR_REFERENCE_NAME=PTW Semiflex 3D (REF)
		DETECTOR_REFERENCE_SN=141800
		DETECTOR_REFERENCE_IS_CALIBRATED=0
		DETECTOR_REFERENCE_CALIBRATION=500000000.00
		DETECTOR_HV=400.0
		DETECTOR_REFERENCE_HV=400.0
		DETECTOR_ORIENTATION=HORIZONTAL
		FILTER=FF
		SCAN_SPEED_PROFILE=0.00
		SCAN_PROF_SPEED_DEP=DEPTH
		SCAN_SPEED_PDD=10.00
		SCAN_PDD_SPEED_DEP=ENERGY
		REF_FIELD_DEPTH=0.00
		REF_FIELD_DEFINED=WATER_SURFACE
		REF_FIELD_INPLANE=100.00
		REF_FIELD_CROSSPLANE=100.00
		REF_SCAN_POSITIONS=0.00;1.00;2.00;3.00;4.00;5.00;6.00;7.00;8.00;9.00;10.00;11.00;12.00;13.00;14.00;15.00;16.00;17.00;18.00;19.00;20.00;21.00;22.00;23.00;24.00;25.00;26.00;27.00;28.00;29.00;30.00;31.00;32.00;33.00;34.00;35.00;36.00;37.00;38.00;39.00;40.00;41.00;42.00;43.00;44.00;45.00;46.00;47.00;48.00;49.00;50.00;51.00;52.00;53.00;54.00;55.00;56.00;57.00;58.00;59.00;60.00;61.00;62.00;63.00;64.00;65.00;66.00;67.00;68.00;69.00;70.00;71.00;72.00;73.00;74.00;75.00;76.00;77.00;78.00;79.00;80.00;81.00;82.00;83.00;84.00;85.00;86.00;87.00;88.00;89.00;90.00;91.00;92.00;93.00;94.00;95.00;96.00;97.00;98.00;99.00;100.00;101.00;102.00;103.00;104.00;105.00;106.00;107.00;108.00;109.00;110.00;111.00;112.00;113.00;114.00;115.00;116.00;117.00;118.00;119.00;120.00;121.00;122.00;123.00;124.00;125.00;126.00;127.00;128.00;129.00;130.00;131.00;132.00;133.00;134.00;135.00;136.00;137.00;138.00;139.00;140.00;141.00;142.00;143.00;144.00;145.00;146.00;147.00;148.00;149.00;150.00;151.00;152.00;153.00;154.00;155.00;156.00;157.00;158.00;159.00;160.00;161.00;162.00;163.00;164.00;165.00;166.00;167.00;168.00;169.00;170.00;171.00;172.00;173.00;174.00;175.00;176.00;177.00;178.00;179.00;180.00;181.00;182.00;183.00;184.00;185.00;186.00;187.00;188.00;189.00;190.00;191.00;192.00;193.00;194.00;195.00;196.00;197.00;198.00;199.00;200.00;201.00;202.00;203.00;204.00;205.00;206.00;207.00;208.00;209.00;210.00;211.00;212.00;213.00;214.00;215.00;216.00;217.00;218.00;219.00;220.00;221.00;222.00;223.00;224.00;225.00;226.00;227.00;228.00;229.00;230.00;231.00;232.00;233.00;234.00;235.00;236.00;237.00;238.00;239.00;240.00;241.00;242.00;243.00;244.00;245.00;246.00;247.00;248.00;249.00;250.00;251.00;252.00;253.00;254.00;255.00;256.00;257.00;258.00;259.00;260.00;261.00;262.00;263.00;264.00;265.00;266.00;267.00;268.00;269.00;270.00;271.00;272.00;273.00;274.00;275.00;276.00;277.00;278.00;279.00;280.00;281.00;282.00;283.00;284.00;285.00;286.00;287.00;288.00;289.00;290.00;291.00;292.00;293.00;294.00;295.00;296.00;297.00;298.00;299.00;300.00;
		SCAN_CURVETYPE=PDD
		SCAN_OFFAXIS_INPLANE=0.00
		SCAN_OFFAXIS_CROSSPLANE=0.00
		SCAN_ANGLE=0.00
		SCAN_DIAGONAL=NOT_DIAGONAL
		SCAN_DIRECTION=NEGATIVE
		MEAS_MEDIUM=WATER
		MEAS_PRESET=MEAS_CONTINUOUS_SCAN
		MEAS_TIME=0.100
		MEAS_UNIT=Gy/min
		PRESSURE=1013.25
		TEMPERATURE=20.00
		NORM_TEMPERATURE=20.00
		CORRECTION_FACTOR=1.0000
		EXPECTED_MAX_DOSE_RATE=3.00
		BEGIN_DATA
			0.00		1.3755E+00
			1.00		1.4610E+00
			2.00		1.6101E+00
			3.00		1.8942E+00
			4.00		2.2266E+00
			5.00		2.5122E+00
			6.00		2.7090E+00
			7.00		2.8827E+00
			8.00		3.0240E+00
			9.00		3.1620E+00
			10.00		3.2580E+00
			11.00		3.3300E+00
			12.00		3.4050E+00
			13.00		3.4710E+00
			14.00		3.5160E+00
			15.00		3.5670E+00
			16.00		3.5880E+00
			17.00		3.6030E+00
			18.00		3.6270E+00
			19.00		3.6510E+00
			20.00		3.6540E+00
			21.00		3.6630E+00
			22.00		3.6540E+00
			23.00		3.6570E+00
			24.00		3.6570E+00
			25.00		3.6690E+00
			26.00		3.6330E+00
			27.00		3.6210E+00
			28.00		3.6300E+00
			29.00		3.6390E+00
			30.00		3.6120E+00
			31.00		3.6030E+00
			32.00		3.5970E+00
			33.00		3.5820E+00
			34.00		3.5520E+00
			35.00		3.5430E+00
			36.00		3.5310E+00
			37.00		3.5250E+00
			38.00		3.5190E+00
			39.00		3.5130E+00
			40.00		3.4980E+00
			41.00		3.4710E+00
			42.00		3.4560E+00
			43.00		3.4320E+00
			44.00		3.4230E+00
			45.00		3.4140E+00
			46.00		3.3870E+00
			47.00		3.3780E+00
			48.00		3.3600E+00
			49.00		3.3510E+00
			50.00		3.3420E+00
			51.00		3.3300E+00
			52.00		3.3090E+00
			53.00		3.3060E+00
			54.00		3.2910E+00
			55.00		3.2730E+00
			56.00		3.2670E+00
			57.00		3.2250E+00
			58.00		3.2010E+00
			59.00		3.2070E+00
			60.00		3.1830E+00
			61.00		3.1860E+00
			62.00		3.1890E+00
			63.00		3.1590E+00
			64.00		3.1320E+00
			65.00		3.1230E+00
			66.00		3.1350E+00
			67.00		3.1200E+00
			68.00		3.0960E+00
			69.00		3.0810E+00
			70.00		3.0810E+00
			71.00		3.0480E+00
			72.00		3.0300E+00
			73.00		3.0210E+00
			74.00		2.9973E+00
			75.00		2.9961E+00
			76.00		2.9820E+00
			77.00		2.9934E+00
			78.00		2.9718E+00
			79.00		2.9538E+00
			80.00		2.9262E+00
			81.00		2.9172E+00
			82.00		2.8947E+00
			83.00		2.8971E+00
			84.00		2.8905E+00
			85.00		2.8647E+00
			86.00		2.8509E+00
			87.00		2.8446E+00
			88.00		2.8317E+00
			89.00		2.8191E+00
			90.00		2.7957E+00
			91.00		2.7939E+00
			92.00		2.7798E+00
			93.00		2.7597E+00
			94.00		2.7477E+00
			95.00		2.7312E+00
			96.00		2.7246E+00
			97.00		2.7168E+00
			98.00		2.6979E+00
			99.00		2.6904E+00
			100.00		2.6838E+00
			101.00		2.6706E+00
			102.00		2.6547E+00
			103.00		2.6382E+00
			104.00		2.6229E+00
			105.00		2.6175E+00
			106.00		2.6094E+00
			107.00		2.5959E+00
			108.00		2.5815E+00
			109.00		2.5755E+00
			110.00		2.5623E+00
			111.00		2.5605E+00
			112.00		2.5476E+00
			113.00		2.5323E+00
			114.00		2.5119E+00
			115.00		2.4885E+00
			116.00		2.4870E+00
			117.00		2.4867E+00
			118.00		2.4735E+00
			119.00		2.4618E+00
			120.00		2.4504E+00
			121.00		2.4324E+00
			122.00		2.4102E+00
			123.00		2.4198E+00
			124.00		2.3994E+00
			125.00		2.3796E+00
			126.00		2.3793E+00
			127.00		2.3598E+00
			128.00		2.3586E+00
			129.00		2.3520E+00
			130.00		2.3469E+00
			131.00		2.3283E+00
			132.00		2.3103E+00
			133.00		2.3028E+00
			134.00		2.2959E+00
			135.00		2.2743E+00
			136.00		2.2650E+00
			137.00		2.2440E+00
			138.00		2.2350E+00
			139.00		2.2398E+00
			140.00		2.2395E+00
			141.00		2.2233E+00
			142.00		2.2182E+00
			143.00		2.2011E+00
			144.00		2.1894E+00
			145.00		2.1789E+00
			146.00		2.1768E+00
			147.00		2.1576E+00
			148.00		2.1396E+00
			149.00		2.1348E+00
			150.00		2.1249E+00
			151.00		2.1219E+00
			152.00		2.1087E+00
			153.00		2.0976E+00
			154.00		2.0823E+00
			155.00		2.0694E+00
			156.00		2.0739E+00
			157.00		2.0658E+00
			158.00		2.0451E+00
			159.00		2.0370E+00
			160.00		2.0277E+00
			161.00		2.0199E+00
			162.00		2.0199E+00
			163.00		2.0028E+00
			164.00		1.9989E+00
			165.00		1.9809E+00
			166.00		1.9716E+00
			167.00		1.9620E+00
			168.00		1.9608E+00
			169.00		1.9512E+00
			170.00		1.9374E+00
			171.00		1.9257E+00
			172.00		1.9206E+00
			173.00		1.9212E+00
			174.00		1.8996E+00
			175.00		1.8906E+00
			176.00		1.8861E+00
			177.00		1.8819E+00
			178.00		1.8741E+00
			179.00		1.8639E+00
			180.00		1.8513E+00
			181.00		1.8435E+00
			182.00		1.8321E+00
			183.00		1.8219E+00
			184.00		1.8135E+00
			185.00		1.8084E+00
			186.00		1.7949E+00
			187.00		1.7796E+00
			188.00		1.7748E+00
			189.00		1.7796E+00
			190.00		1.7688E+00
			191.00		1.7610E+00
			192.00		1.7463E+00
			193.00		1.7397E+00
			194.00		1.7421E+00
			195.00		1.7292E+00
			196.00		1.7160E+00
			197.00		1.7061E+00
			198.00		1.6965E+00
			199.00		1.6857E+00
			200.00		1.6863E+00
			201.00		1.6785E+00
			202.00		1.6683E+00
			203.00		1.6551E+00
			204.00		1.6452E+00
			205.00		1.6485E+00
			206.00		1.6383E+00
			207.00		1.6275E+00
			208.00		1.6242E+00
			209.00		1.6158E+00
			210.00		1.6137E+00
			211.00		1.6062E+00
			212.00		1.5975E+00
			213.00		1.5765E+00
			214.00		1.5651E+00
			215.00		1.5669E+00
			216.00		1.5582E+00
			217.00		1.5537E+00
			218.00		1.5495E+00
			219.00		1.5438E+00
			220.00		1.5420E+00
			221.00		1.5303E+00
			222.00		1.5225E+00
			223.00		1.5141E+00
			224.00		1.5060E+00
			225.00		1.5021E+00
			226.00		1.4967E+00
			227.00		1.4904E+00
			228.00		1.4739E+00
			229.00		1.4742E+00
			230.00		1.4652E+00
			231.00		1.4574E+00
			232.00		1.4478E+00
			233.00		1.4331E+00
			234.00		1.4313E+00
			235.00		1.4286E+00
			236.00		1.4232E+00
			237.00		1.4133E+00
			238.00		1.4079E+00
			239.00		1.4016E+00
			240.00		1.3989E+00
			241.00		1.3920E+00
			242.00		1.3881E+00
			243.00		1.3749E+00
			244.00		1.3746E+00
			245.00		1.3653E+00
			246.00		1.3572E+00
			247.00		1.3467E+00
			248.00		1.3431E+00
			249.00		1.3341E+00
			250.00		1.3326E+00
			251.00		1.3275E+00
			252.00		1.3215E+00
			253.00		1.3185E+00
			254.00		1.3119E+00
			255.00		1.3047E+00
			256.00		1.2921E+00
			257.00		1.2906E+00
			258.00		1.2828E+00
			259.00		1.2753E+00
			260.00		1.2726E+00
			261.00		1.2645E+00
			262.00		1.2600E+00
			263.00		1.2471E+00
			264.00		1.2447E+00
			265.00		1.2435E+00
			266.00		1.2360E+00
			267.00		1.2315E+00
			268.00		1.2279E+00
			269.00		1.2189E+00
			270.00		1.2132E+00
			271.00		1.2081E+00
			272.00		1.2045E+00
			273.00		1.2042E+00
			274.00		1.1970E+00
			275.00		1.1919E+00
			276.00		1.1832E+00
			277.00		1.1739E+00
			278.00		1.1721E+00
			279.00		1.1619E+00
			280.00		1.1586E+00
			281.00		1.1529E+00
			282.00		1.1451E+00
			283.00		1.1412E+00
			284.00		1.1424E+00
			285.00		1.1379E+00
			286.00		1.1316E+00
			287.00		1.1217E+00
			288.00		1.1166E+00
			289.00		1.1121E+00
			290.00		1.1085E+00
			291.00		1.1046E+00
			292.00		1.1007E+00
			293.00		1.0935E+00
			294.00		1.0863E+00
			295.00		1.0821E+00
			296.00		1.0779E+00
			297.00		1.0692E+00
			298.00		1.0659E+00
			299.00		1.0617E+00
			300.00		1.0572E+00
		END_DATA
	END_SCAN  1
END_SCAN_DATA
