BEGIN_SCAN_DATA
	FORMAT=CC-Export V1.9                  
	FILE_CREATION_DATE=18-Nov-2022 07:59:38
	LAST_MODIFIED=18-Nov-2022 07:59:38
	BEGIN_SCAN  1
		TASK_NAME=tba PDD Profiles
		PROGRAM=WaterTankScans
		MEAS_DATE=18-Nov-2022 07:58:52
		LINAC=L3 ELEKTA SYNERGY
		MODALITY=X
		ISOCENTER=1000.00
		INPLANE_AXIS=Inplane
		CROSSPLANE_AXIS=Crossplane
		DEPTH_AXIS=Depth
		INPLANE_AXIS_DIR=GUN_TARGET
		CROSSPLANE_AXIS_DIR=LEFT_RIGHT
		DEPTH_AXIS_DIR=UP_DOWN
		ENERGY=10.00
		NOMINAL_DMAX=25.00
		SSD=1000.00
		BLOCK=0
		WEDGE_ANGLE=0.00
		FIELD_INPLANE=100.00
		FIELD_CROSSPLANE=100.00
		FIELD_TYPE=RECTANGULAR
		GANTRY=0.00
		GANTRY_UPRIGHT_POSITION=0
		GANTRY_ROTATION=CW
		COLL_ANGLE=0.00
		COLL_OFFSET_INPLANE=0.00
		COLL_OFFSET_CROSSPLANE=0.00
		SCAN_DEVICE=BeamScan
		SCAN_DEVICE_SETUP=BARA_LEFT_RIGHT
		ELECTROMETER=BeamScan
		RANGE_FIELD=MEDIUM
		RANGE_REFERENCE=MEDIUM
		DETECTOR=THIMBLE_CHAMBER
		DETECTOR_SUBCODE=SEMIFLEX
		DETECTOR_RADIUS=2.40
		DETECTOR_NAME=PTW Semiflex 3D (Field)
		DETECTOR_SN=141799
		DETECTOR_CALIBRATION=500000000.00
		DETECTOR_IS_CALIBRATED=1
		DETECTOR_REFERENCE=THIMBLE_CHAMBER
		DETECTOR_REFERENCE_SUBCODE=SEMIFLEX
		DETECTOR_REFERENCE_RADIUS=2.40
		DETECTOR_REFERENCE_NAME=PTW Semiflex 3D (REF)
		DETECTOR_REFERENCE_SN=141800
		DETECTOR_REFERENCE_IS_CALIBRATED=0
		DETECTOR_REFERENCE_CALIBRATION=500000000.00
		DETECTOR_HV=400.0
		DETECTOR_REFERENCE_HV=400.0
		DETECTOR_ORIENTATION=HORIZONTAL
		FILTER=FF
		SCAN_SPEED_PROFILE=0.00
		SCAN_PROF_SPEED_DEP=DEPTH
		SCAN_SPEED_PDD=10.00
		SCAN_PDD_SPEED_DEP=ENERGY
		REF_FIELD_DEPTH=0.00
		REF_FIELD_DEFINED=WATER_SURFACE
		REF_FIELD_INPLANE=100.00
		REF_FIELD_CROSSPLANE=100.00
		REF_SCAN_POSITIONS=0.00;1.00;2.00;3.00;4.00;5.00;6.00;7.00;8.00;9.00;10.00;11.00;12.00;13.00;14.00;15.00;16.00;17.00;18.00;19.00;20.00;21.00;22.00;23.00;24.00;25.00;26.00;27.00;28.00;29.00;30.00;31.00;32.00;33.00;34.00;35.00;36.00;37.00;38.00;39.00;40.00;41.00;42.00;43.00;44.00;45.00;46.00;47.00;48.00;49.00;50.00;51.00;52.00;53.00;54.00;55.00;56.00;57.00;58.00;59.00;60.00;61.00;62.00;63.00;64.00;65.00;66.00;67.00;68.00;69.00;70.00;71.00;72.00;73.00;74.00;75.00;76.00;77.00;78.00;79.00;80.00;81.00;82.00;83.00;84.00;85.00;86.00;87.00;88.00;89.00;90.00;91.00;92.00;93.00;94.00;95.00;96.00;97.00;98.00;99.00;100.00;101.00;102.00;103.00;104.00;105.00;106.00;107.00;108.00;109.00;110.00;111.00;112.00;113.00;114.00;115.00;116.00;117.00;118.00;119.00;120.00;121.00;122.00;123.00;124.00;125.00;126.00;127.00;128.00;129.00;130.00;131.00;132.00;133.00;134.00;135.00;136.00;137.00;138.00;139.00;140.00;141.00;142.00;143.00;144.00;145.00;146.00;147.00;148.00;149.00;150.00;151.00;152.00;153.00;154.00;155.00;156.00;157.00;158.00;159.00;160.00;161.00;162.00;163.00;164.00;165.00;166.00;167.00;168.00;169.00;170.00;171.00;172.00;173.00;174.00;175.00;176.00;177.00;178.00;179.00;180.00;181.00;182.00;183.00;184.00;185.00;186.00;187.00;188.00;189.00;190.00;191.00;192.00;193.00;194.00;195.00;196.00;197.00;198.00;199.00;200.00;201.00;202.00;203.00;204.00;205.00;206.00;207.00;208.00;209.00;210.00;211.00;212.00;213.00;214.00;215.00;216.00;217.00;218.00;219.00;220.00;221.00;222.00;223.00;224.00;225.00;226.00;227.00;228.00;229.00;230.00;231.00;232.00;233.00;234.00;235.00;236.00;237.00;238.00;239.00;240.00;241.00;242.00;243.00;244.00;245.00;246.00;247.00;248.00;249.00;250.00;251.00;252.00;253.00;254.00;255.00;256.00;257.00;258.00;259.00;260.00;261.00;262.00;263.00;264.00;265.00;266.00;267.00;268.00;269.00;270.00;271.00;272.00;273.00;274.00;275.00;276.00;277.00;278.00;279.00;280.00;281.00;282.00;283.00;284.00;285.00;286.00;287.00;288.00;289.00;290.00;291.00;292.00;293.00;294.00;295.00;296.00;297.00;298.00;299.00;300.00;
		SCAN_CURVETYPE=PDD
		SCAN_OFFAXIS_INPLANE=0.00
		SCAN_OFFAXIS_CROSSPLANE=0.00
		SCAN_ANGLE=0.00
		SCAN_DIAGONAL=NOT_DIAGONAL
		SCAN_DIRECTION=NEGATIVE
		MEAS_MEDIUM=WATER
		MEAS_PRESET=MEAS_CONTINUOUS_REFERENCE_SCAN
		MEAS_TIME=0.100
		MEAS_UNIT=A.U.
		PRESSURE=1013.25
		TEMPERATURE=20.00
		NORM_TEMPERATURE=20.00
		CORRECTION_FACTOR=1.0000
		EXPECTED_MAX_DOSE_RATE=3.00
		BEGIN_DATA
			0.00		352.64E-03		4.7640E+00
			1.00		388.54E-03		4.7640E+00
			2.00		449.49E-03		4.7520E+00
			3.00		532.49E-03		4.7550E+00
			4.00		603.27E-03		4.7640E+00
			5.00		663.10E-03		4.7640E+00
			6.00		710.41E-03		4.7550E+00
			7.00		746.21E-03		4.7520E+00
			8.00		778.06E-03		4.7580E+00
			9.00		803.79E-03		4.7550E+00
			10.00		826.39E-03		4.7520E+00
			11.00		843.83E-03		4.7640E+00
			12.00		859.57E-03		4.7640E+00
			13.00		872.72E-03		4.7610E+00
			14.00		882.39E-03		4.7700E+00
			15.00		890.01E-03		4.7460E+00
			16.00		895.40E-03		4.7610E+00
			17.00		903.29E-03		4.7460E+00
			18.00		904.85E-03		4.7610E+00
			19.00		908.00E-03		4.7610E+00
			20.00		908.40E-03		4.7490E+00
			21.00		908.63E-03		4.7610E+00
			22.00		913.73E-03		4.7640E+00
			23.00		912.25E-03		4.7520E+00
			24.00		910.47E-03		4.7580E+00
			25.00		909.72E-03		4.7520E+00
			26.00		907.14E-03		4.7490E+00
			27.00		904.67E-03		4.7520E+00
			28.00		903.80E-03		4.7400E+00
			29.00		900.06E-03		4.7730E+00
			30.00		896.16E-03		4.7670E+00
			31.00		894.27E-03		4.7670E+00
			32.00		890.36E-03		4.7610E+00
			33.00		889.10E-03		4.7610E+00
			34.00		885.39E-03		4.7640E+00
			35.00		882.24E-03		4.7640E+00
			36.00		879.17E-03		4.7670E+00
			37.00		875.71E-03		4.7550E+00
			38.00		873.66E-03		4.7490E+00
			39.00		868.94E-03		4.7610E+00
			40.00		864.61E-03		4.7640E+00
			41.00		863.72E-03		4.7550E+00
			42.00		859.86E-03		4.7310E+00
			43.00		854.44E-03		4.7610E+00
			44.00		850.38E-03		4.7520E+00
			45.00		848.20E-03		4.7430E+00
			46.00		843.63E-03		4.7580E+00
			47.00		839.52E-03		4.7670E+00
			48.00		836.38E-03		4.7670E+00
			49.00		833.44E-03		4.7550E+00
			50.00		830.28E-03		4.7550E+00
			51.00		829.02E-03		4.7550E+00
			52.00		821.90E-03		4.7670E+00
			53.00		821.11E-03		4.7460E+00
			54.00		815.94E-03		4.7430E+00
			55.00		812.46E-03		4.7670E+00
			56.00		810.84E-03		4.7580E+00
			57.00		807.43E-03		4.7670E+00
			58.00		804.80E-03		4.7490E+00
			59.00		800.00E-03		4.7550E+00
			60.00		795.47E-03		4.7670E+00
			61.00		793.32E-03		4.7610E+00
			62.00		790.54E-03		4.7550E+00
			63.00		785.22E-03		4.7490E+00
			64.00		780.29E-03		4.7790E+00
			65.00		779.03E-03		4.7790E+00
			66.00		774.70E-03		4.7670E+00
			67.00		772.18E-03		4.7670E+00
			68.00		768.07E-03		4.7730E+00
			69.00		765.89E-03		4.7670E+00
			70.00		761.64E-03		4.7700E+00
			71.00		758.97E-03		4.7670E+00
			72.00		757.58E-03		4.7520E+00
			73.00		752.52E-03		4.7640E+00
			74.00		749.37E-03		4.7520E+00
			75.00		746.53E-03		4.7580E+00
			76.00		742.42E-03		4.7520E+00
			77.00		738.66E-03		4.7640E+00
			78.00		736.28E-03		4.7550E+00
			79.00		732.03E-03		4.7580E+00
			80.00		729.05E-03		4.7610E+00
			81.00		725.33E-03		4.7730E+00
			82.00		723.10E-03		4.7670E+00
			83.00		721.03E-03		4.7640E+00
			84.00		718.79E-03		4.7580E+00
			85.00		714.20E-03		4.7550E+00
			86.00		710.96E-03		4.7640E+00
			87.00		706.92E-03		4.7700E+00
			88.00		703.47E-03		4.7550E+00
			89.00		698.42E-03		4.7550E+00
			90.00		697.54E-03		4.7610E+00
			91.00		693.52E-03		4.7670E+00
			92.00		690.13E-03		4.7730E+00
			93.00		687.62E-03		4.7730E+00
			94.00		683.88E-03		4.7640E+00
			95.00		682.68E-03		4.7460E+00
			96.00		679.47E-03		4.7640E+00
			97.00		675.05E-03		4.7730E+00
			98.00		672.12E-03		4.7670E+00
			99.00		669.40E-03		4.7550E+00
			100.00		668.14E-03		4.7640E+00
			101.00		664.56E-03		4.7490E+00
			102.00		660.16E-03		4.7670E+00
			103.00		657.02E-03		4.7670E+00
			104.00		653.55E-03		4.7280E+00
			105.00		651.54E-03		4.7610E+00
			106.00		647.98E-03		4.7640E+00
			107.00		646.28E-03		4.7580E+00
			108.00		642.95E-03		4.7640E+00
			109.00		639.75E-03		4.7550E+00
			110.00		638.03E-03		4.7490E+00
			111.00		635.56E-03		4.7580E+00
			112.00		631.61E-03		4.7640E+00
			113.00		629.09E-03		4.7640E+00
			114.00		625.00E-03		4.7520E+00
			115.00		622.80E-03		4.7640E+00
			116.00		621.30E-03		4.7610E+00
			117.00		616.02E-03		4.7580E+00
			118.00		614.85E-03		4.7670E+00
			119.00		612.09E-03		4.7640E+00
			120.00		608.07E-03		4.7610E+00
			121.00		606.69E-03		4.7520E+00
			122.00		604.80E-03		4.7520E+00
			123.00		602.65E-03		4.7490E+00
			124.00		599.12E-03		4.7670E+00
			125.00		594.20E-03		4.7610E+00
			126.00		592.69E-03		4.7580E+00
			127.00		590.28E-03		4.7520E+00
			128.00		587.01E-03		4.7580E+00
			129.00		585.49E-03		4.7550E+00
			130.00		580.54E-03		4.7490E+00
			131.00		578.35E-03		4.7670E+00
			132.00		575.93E-03		4.7610E+00
			133.00		573.86E-03		4.7520E+00
			134.00		569.63E-03		4.7610E+00
			135.00		566.83E-03		4.7580E+00
			136.00		565.57E-03		4.7580E+00
			137.00		564.15E-03		4.7700E+00
			138.00		559.40E-03		4.7730E+00
			139.00		557.58E-03		4.7670E+00
			140.00		555.00E-03		4.7730E+00
			141.00		552.48E-03		4.7730E+00
			142.00		548.83E-03		4.7610E+00
			143.00		546.60E-03		4.7640E+00
			144.00		545.40E-03		4.7580E+00
			145.00		542.88E-03		4.7580E+00
			146.00		540.69E-03		4.7550E+00
			147.00		537.20E-03		4.7580E+00
			148.00		533.92E-03		4.7760E+00
			149.00		531.78E-03		4.7670E+00
			150.00		530.34E-03		4.7460E+00
			151.00		527.18E-03		4.7460E+00
			152.00		524.89E-03		4.7610E+00
			153.00		522.67E-03		4.7640E+00
			154.00		519.82E-03		4.7670E+00
			155.00		518.61E-03		4.7550E+00
			156.00		515.15E-03		4.7520E+00
			157.00		513.31E-03		4.7340E+00
			158.00		510.69E-03		4.7700E+00
			159.00		507.88E-03		4.7610E+00
			160.00		505.04E-03		4.7640E+00
			161.00		503.79E-03		4.7520E+00
			162.00		501.58E-03		4.7550E+00
			163.00		499.37E-03		4.7580E+00
			164.00		495.89E-03		4.7430E+00
			165.00		494.32E-03		4.7520E+00
			166.00		493.03E-03		4.7340E+00
			167.00		489.29E-03		4.7640E+00
			168.00		487.05E-03		4.7490E+00
			169.00		485.21E-03		4.7670E+00
			170.00		482.30E-03		4.7460E+00
			171.00		480.13E-03		4.7550E+00
			172.00		478.56E-03		4.7580E+00
			173.00		476.40E-03		4.7670E+00
			174.00		472.40E-03		4.7820E+00
			175.00		473.15E-03		4.7490E+00
			176.00		470.11E-03		4.7670E+00
			177.00		468.14E-03		4.7550E+00
			178.00		464.69E-03		4.7580E+00
			179.00		463.04E-03		4.7490E+00
			180.00		460.33E-03		4.7640E+00
			181.00		459.99E-03		4.7610E+00
			182.00		457.02E-03		4.7460E+00
			183.00		454.14E-03		4.7430E+00
			184.00		452.59E-03		4.7460E+00
			185.00		449.28E-03		4.7610E+00
			186.00		448.23E-03		4.7520E+00
			187.00		446.62E-03		4.7490E+00
			188.00		443.32E-03		4.7640E+00
			189.00		441.64E-03		4.7550E+00
			190.00		439.60E-03		4.7430E+00
			191.00		437.42E-03		4.7460E+00
			192.00		436.24E-03		4.7520E+00
			193.00		433.88E-03		4.7640E+00
			194.00		431.09E-03		4.7670E+00
			195.00		430.28E-03		4.7550E+00
			196.00		427.40E-03		4.7520E+00
			197.00		425.14E-03		4.7490E+00
			198.00		422.01E-03		4.7700E+00
			199.00		422.35E-03		4.7520E+00
			200.00		419.72E-03		4.7460E+00
			201.00		418.35E-03		4.7400E+00
			202.00		415.25E-03		4.7610E+00
			203.00		413.58E-03		4.7730E+00
			204.00		412.73E-03		4.7610E+00
			205.00		411.47E-03		4.7610E+00
			206.00		408.43E-03		4.7670E+00
			207.00		406.68E-03		4.7580E+00
			208.00		405.06E-03		4.7400E+00
			209.00		401.90E-03		4.7400E+00
			210.00		400.50E-03		4.7640E+00
			211.00		399.50E-03		4.7610E+00
			212.00		396.48E-03		4.7670E+00
			213.00		395.72E-03		4.7610E+00
			214.00		394.80E-03		4.7340E+00
			215.00		391.06E-03		4.7640E+00
			216.00		390.29E-03		4.7580E+00
			217.00		388.01E-03		4.7550E+00
			218.00		385.49E-03		4.7550E+00
			219.00		383.74E-03		4.7610E+00
			220.00		382.43E-03		4.7460E+00
			221.00		379.81E-03		4.7550E+00
			222.00		379.81E-03		4.7550E+00
			223.00		376.57E-03		4.7640E+00
			224.00		375.55E-03		4.7610E+00
			225.00		373.90E-03		4.7580E+00
			226.00		372.17E-03		4.7640E+00
			227.00		370.18E-03		4.7490E+00
			228.00		367.59E-03		4.7580E+00
			229.00		366.27E-03		4.7670E+00
			230.00		365.53E-03		4.7520E+00
			231.00		363.75E-03		4.7670E+00
			232.00		361.51E-03		4.7550E+00
			233.00		360.48E-03		4.7520E+00
			234.00		358.59E-03		4.7520E+00
			235.00		356.74E-03		4.7430E+00
			236.00		355.06E-03		4.7400E+00
			237.00		354.43E-03		4.7400E+00
			238.00		350.98E-03		4.7610E+00
			239.00		350.41E-03		4.7430E+00
			240.00		349.81E-03		4.7340E+00
			241.00		347.66E-03		4.7460E+00
			242.00		344.89E-03		4.7580E+00
			243.00		343.87E-03		4.7460E+00
			244.00		342.19E-03		4.7430E+00
			245.00		339.66E-03		4.7430E+00
			246.00		339.44E-03		4.7460E+00
			247.00		337.74E-03		4.7610E+00
			248.00		335.86E-03		4.7520E+00
			249.00		335.44E-03		4.7490E+00
			250.00		331.86E-03		4.7550E+00
			251.00		329.97E-03		4.7640E+00
			252.00		329.76E-03		4.7580E+00
			253.00		328.28E-03		4.7520E+00
			254.00		327.64E-03		4.7430E+00
			255.00		324.31E-03		4.7640E+00
			256.00		323.44E-03		4.7490E+00
			257.00		322.40E-03		4.7550E+00
			258.00		320.89E-03		4.7400E+00
			259.00		318.99E-03		4.7400E+00
			260.00		317.15E-03		4.7580E+00
			261.00		315.29E-03		4.7670E+00
			262.00		314.83E-03		4.7550E+00
			263.00		312.90E-03		4.7460E+00
			264.00		311.20E-03		4.7430E+00
			265.00		309.78E-03		4.7550E+00
			266.00		309.97E-03		4.7520E+00
			267.00		307.84E-03		4.7460E+00
			268.00		306.14E-03		4.7430E+00
			269.00		303.85E-03		4.7490E+00
			270.00		302.15E-03		4.7460E+00
			271.00		301.96E-03		4.7490E+00
			272.00		301.08E-03		4.7430E+00
			273.00		298.61E-03		4.7520E+00
			274.00		298.10E-03		4.7400E+00
			275.00		297.35E-03		4.7520E+00
			276.00		294.82E-03		4.7520E+00
			277.00		293.93E-03		4.7460E+00
			278.00		292.11E-03		4.7550E+00
			279.00		291.67E-03		4.7520E+00
			280.00		289.69E-03		4.7430E+00
			281.00		287.97E-03		4.7400E+00
			282.00		286.80E-03		4.7490E+00
			283.00		285.17E-03		4.7340E+00
			284.00		284.09E-03		4.7520E+00
			285.00		282.29E-03		4.7610E+00
			286.00		282.38E-03		4.7490E+00
			287.00		279.95E-03		4.7580E+00
			288.00		279.14E-03		4.7610E+00
			289.00		278.06E-03		4.7580E+00
			290.00		276.76E-03		4.7370E+00
			291.00		274.97E-03		4.7460E+00
			292.00		274.05E-03		4.7400E+00
			293.00		273.24E-03		4.7430E+00
			294.00		269.45E-03		4.7430E+00
			295.00		269.28E-03		4.7460E+00
			296.00		270.13E-03		4.7310E+00
			297.00		267.85E-03		4.7490E+00
			298.00		266.75E-03		4.7460E+00
			299.00		265.78E-03		4.7520E+00
			300.00		264.52E-03		4.7520E+00
		END_DATA
	END_SCAN  1
END_SCAN_DATA
