BEGIN_SCAN_DATA
	FORMAT=CC-Export V1.9                  
	FILE_CREATION_DATE=20-May-2016 11:27:33
	LAST_MODIFIED=20-May-2016 11:27:33
	BEGIN_SCAN  1
		TASK_NAME=tba PDD Profiles
		PROGRAM=tbaScan
		MEAS_DATE=20-May-2016 11:24:26
		LINAC=LINAC 1 ELEKTA 
		MODALITY=X
		ISOCENTER=1000.00
		INPLANE_AXIS=Inplane
		CROSSPLANE_AXIS=Crossplane
		DEPTH_AXIS=Depth
		INPLANE_AXIS_DIR=TARGET_GUN
		CROSSPLANE_AXIS_DIR=LEFT_RIGHT
		DEPTH_AXIS_DIR=UP_DOWN
		ENERGY=16.00
		NOMINAL_DMAX=15.00
		SSD=1000.00
		SCD=450.00
		BLOCK=0
		WEDGE_ANGLE=0.00
		FIELD_INPLANE=100.00
		FIELD_CROSSPLANE=100.00
		FIELD_TYPE=RECTANGULAR
		GANTRY=0.00
		GANTRY_UPRIGHT_POSITION=0
		GANTRY_ROTATION=CW
		COLL_ANGLE=0.00
		COLL_OFFSET_INPLANE=0.00
		COLL_OFFSET_CROSSPLANE=0.00
		SCAN_DEVICE=MP3
		SCAN_DEVICE_SETUP=BARA_LEFT_RIGHT
		ELECTROMETER=TANDEM
		RANGE_FIELD=AUTO
		RANGE_REFERENCE=AUTO
		DETECTOR=THIMBLE_CHAMBER
		DETECTOR_SUBCODE=SEMIFLEX
		DETECTOR_RADIUS=2.75
		DETECTOR_NAME=PTW 31010 Semiflex
		DETECTOR_SN=0000
		DETECTOR_CALIBRATION=300000000.00
		DETECTOR_IS_CALIBRATED=0
		DETECTOR_REFERENCE=THIMBLE_CHAMBER
		DETECTOR_REFERENCE_SUBCODE=SEMIFLEX
		DETECTOR_REFERENCE_RADIUS=2.75
		DETECTOR_REFERENCE_NAME=PTW 31002 Semiflex
		DETECTOR_REFERENCE_SN=0000
		DETECTOR_REFERENCE_IS_CALIBRATED=0
		DETECTOR_REFERENCE_CALIBRATION=250000000.00
		REF_FIELD_DEPTH=0.00
		REF_FIELD_DEFINED=WATER_SURFACE
		REF_FIELD_INPLANE=300.00
		REF_FIELD_CROSSPLANE=300.00
		REF_SCAN_POSITIONS=-5.00;-4.00;-3.00;-2.00;-1.00;0.00;1.00;2.00;3.00;4.00;5.00;6.00;7.00;8.00;9.00;10.00;11.00;12.00;13.00;14.00;15.00;16.00;17.00;18.00;19.00;20.00;21.00;22.00;23.00;24.00;25.00;26.00;27.00;28.00;29.00;30.00;31.00;32.00;33.00;34.00;35.00;36.00;37.00;38.00;39.00;40.00;41.00;42.00;43.00;44.00;45.00;46.00;47.00;48.00;49.00;50.00;52.00;54.00;56.00;58.00;60.00;62.00;64.00;66.00;68.00;70.00;72.00;74.00;76.00;78.00;80.00;82.00;84.00;86.00;88.00;90.00;92.00;94.00;96.00;98.00;100.00;102.00;104.00;106.00;108.00;110.00;112.00;114.00;116.00;118.00;120.00;122.00;124.00;126.00;128.00;130.00;132.00;134.00;136.00;138.00;140.00;142.00;144.00;146.00;148.00;150.00;152.00;154.00;156.00;158.00;160.00;162.00;164.00;166.00;168.00;170.00;172.00;174.00;176.00;178.00;180.00;182.00;184.00;186.00;188.00;190.00;192.00;194.00;196.00;198.00;200.00;202.00;204.00;206.00;208.00;210.00;212.00;214.00;216.00;218.00;220.00;222.00;224.00;226.00;228.00;230.00;232.00;234.00;236.00;238.00;240.00;242.00;244.00;246.00;248.00;250.00;252.00;254.00;256.00;258.00;260.00;262.00;264.00;266.00;268.00;270.00;272.00;274.00;276.00;278.00;280.00;282.00;284.00;286.00;288.00;290.00;292.00;294.00;296.00;298.00;300.00;
		SCAN_CURVETYPE=PDD
		SCAN_OFFAXIS_INPLANE=0.00
		SCAN_OFFAXIS_CROSSPLANE=0.00
		SCAN_ANGLE=0.00
		SCAN_DIAGONAL=NOT_DIAGONAL
		SCAN_DIRECTION=NEGATIVE
		MEAS_MEDIUM=WATER
		MEAS_PRESET=REFERENCE_DOSEMETER
		MEAS_TIME=0.100
		MEAS_UNIT=A.U.
		SCAN_SPEEDS=20.00; 5.00;40.00; 5.00;100.00; 5.00;400.00; 5.00;
		DELAY_TIMES=20.00; 0.200;150.00; 0.200;400.00; 0.200;
		PRESSURE=1013.25
		TEMPERATURE=20.00
		NORM_TEMPERATURE=20.00
		CORRECTION_FACTOR=1.0000
		EXPECTED_MAX_DOSE_RATE=3.00
		BEGIN_DATA
			-5.00		1.1037E+00		5.3820E+00
			-4.00		1.1106E+00		5.3775E+00
			-3.00		1.1199E+00		5.3730E+00
			-2.00		1.1290E+00		5.3760E+00
			-1.00		1.1491E+00		5.3730E+00
			0.00		1.1765E+00		5.3670E+00
			1.00		1.2251E+00		5.3685E+00
			2.00		1.3450E+00		5.3745E+00
			3.00		1.5866E+00		5.3730E+00
			4.00		1.7740E+00		5.3715E+00
			5.00		1.9163E+00		5.3700E+00
			6.00		2.0279E+00		5.3700E+00
			7.00		2.1117E+00		5.3625E+00
			8.00		2.1792E+00		5.3715E+00
			9.00		2.2314E+00		5.3715E+00
			10.00		2.2704E+00		5.3730E+00
			11.00		2.3009E+00		5.3760E+00
			12.00		2.3287E+00		5.3745E+00
			13.00		2.3411E+00		5.3760E+00
			14.00		2.3588E+00		5.3730E+00
			15.00		2.3692E+00		5.3760E+00
			16.00		2.3725E+00		5.3580E+00
			17.00		2.3761E+00		5.3580E+00
			18.00		2.3762E+00		5.3655E+00
			19.00		2.3685E+00		5.3700E+00
			20.00		2.3678E+00		5.3625E+00
			21.00		2.3614E+00		5.3640E+00
			22.00		2.3581E+00		5.3715E+00
			23.00		2.3450E+00		5.3655E+00
			24.00		2.3437E+00		5.3670E+00
			25.00		2.3368E+00		5.3565E+00
			26.00		2.3249E+00		5.3685E+00
			27.00		2.3105E+00		5.3670E+00
			28.00		2.3070E+00		5.3640E+00
			29.00		2.2971E+00		5.3700E+00
			30.00		2.2877E+00		5.3685E+00
			31.00		2.2775E+00		5.3640E+00
			32.00		2.2657E+00		5.3625E+00
			33.00		2.2583E+00		5.3625E+00
			34.00		2.2445E+00		5.3595E+00
			35.00		2.2323E+00		5.3565E+00
			36.00		2.2243E+00		5.3670E+00
			37.00		2.2158E+00		5.3640E+00
			38.00		2.2081E+00		5.3640E+00
			39.00		2.1947E+00		5.3670E+00
			40.00		2.1836E+00		5.3565E+00
			41.00		2.1709E+00		5.3655E+00
			42.00		2.1647E+00		5.3550E+00
			43.00		2.1515E+00		5.3670E+00
			44.00		2.1427E+00		5.3655E+00
			45.00		2.1306E+00		5.3655E+00
			46.00		2.1208E+00		5.3580E+00
			47.00		2.1152E+00		5.3595E+00
			48.00		2.1003E+00		5.3625E+00
			49.00		2.0903E+00		5.3580E+00
			50.00		2.0820E+00		5.3610E+00
			52.00		2.0575E+00		5.3610E+00
			54.00		2.0393E+00		5.3550E+00
			56.00		2.0218E+00		5.3640E+00
			58.00		1.9979E+00		5.3625E+00
			60.00		1.9762E+00		5.3595E+00
			62.00		1.9568E+00		5.3610E+00
			64.00		1.9403E+00		5.3610E+00
			66.00		1.9180E+00		5.3625E+00
			68.00		1.8989E+00		5.3595E+00
			70.00		1.8842E+00		5.3535E+00
			72.00		1.8603E+00		5.3460E+00
			74.00		1.8393E+00		5.3580E+00
			76.00		1.8234E+00		5.3505E+00
			78.00		1.8049E+00		5.3535E+00
			80.00		1.7837E+00		5.3655E+00
			82.00		1.7647E+00		5.3550E+00
			84.00		1.7469E+00		5.3520E+00
			86.00		1.7284E+00		5.3520E+00
			88.00		1.7128E+00		5.3490E+00
			90.00		1.6883E+00		5.3565E+00
			92.00		1.6739E+00		5.3550E+00
			94.00		1.6573E+00		5.3535E+00
			96.00		1.6373E+00		5.3475E+00
			98.00		1.6226E+00		5.3415E+00
			100.00		1.6052E+00		5.3445E+00
			102.00		1.5866E+00		5.3640E+00
			104.00		1.5682E+00		5.3430E+00
			106.00		1.5518E+00		5.3520E+00
			108.00		1.5375E+00		5.3490E+00
			110.00		1.5189E+00		5.3505E+00
			112.00		1.5014E+00		5.3385E+00
			114.00		1.4919E+00		5.3520E+00
			116.00		1.4706E+00		5.3475E+00
			118.00		1.4602E+00		5.3415E+00
			120.00		1.4392E+00		5.3430E+00
			122.00		1.4258E+00		5.3490E+00
			124.00		1.4113E+00		5.3400E+00
			126.00		1.3942E+00		5.3490E+00
			128.00		1.3813E+00		5.3415E+00
			130.00		1.3685E+00		5.3400E+00
			132.00		1.3508E+00		5.3475E+00
			134.00		1.3375E+00		5.3415E+00
			136.00		1.3207E+00		5.3370E+00
			138.00		1.3092E+00		5.3385E+00
			140.00		1.2925E+00		5.3310E+00
			142.00		1.2826E+00		5.3400E+00
			144.00		1.2658E+00		5.3310E+00
			146.00		1.2536E+00		5.3385E+00
			148.00		1.2374E+00		5.3385E+00
			150.00		1.2256E+00		5.3400E+00
			152.00		1.2128E+00		5.3415E+00
			154.00		1.1983E+00		5.3370E+00
			156.00		1.1882E+00		5.3325E+00
			158.00		1.1710E+00		5.3325E+00
			160.00		1.1602E+00		5.3400E+00
			162.00		1.1470E+00		5.3295E+00
			164.00		1.1339E+00		5.3355E+00
			166.00		1.1227E+00		5.3295E+00
			168.00		1.1075E+00		5.3325E+00
			170.00		1.0987E+00		5.3310E+00
			172.00		1.0869E+00		5.3295E+00
			174.00		1.0740E+00		5.3295E+00
			176.00		1.0630E+00		5.3205E+00
			178.00		1.0517E+00		5.3295E+00
			180.00		1.0380E+00		5.3325E+00
			182.00		1.0288E+00		5.3205E+00
			184.00		1.0179E+00		5.3175E+00
			186.00		1.0051E+00		5.3205E+00
			188.00		993.74E-03		5.3235E+00
			190.00		983.94E-03		5.3235E+00
			192.00		974.56E-03		5.3175E+00
			194.00		963.25E-03		5.3220E+00
			196.00		956.21E-03		5.3235E+00
			198.00		942.20E-03		5.3205E+00
			200.00		930.29E-03		5.3190E+00
			202.00		924.27E-03		5.3205E+00
			204.00		912.70E-03		5.3130E+00
			206.00		903.56E-03		5.3130E+00
			208.00		892.29E-03		5.3115E+00
			210.00		882.03E-03		5.3100E+00
			212.00		873.16E-03		5.3145E+00
			214.00		862.66E-03		5.3145E+00
			216.00		853.85E-03		5.3145E+00
			218.00		844.95E-03		5.3130E+00
			220.00		835.56E-03		5.3145E+00
			222.00		826.19E-03		5.3160E+00
			224.00		820.91E-03		5.3085E+00
			226.00		811.40E-03		5.3175E+00
			228.00		800.79E-03		5.3070E+00
			230.00		791.61E-03		5.2935E+00
			232.00		785.28E-03		5.2995E+00
			234.00		775.23E-03		5.3055E+00
			236.00		766.26E-03		5.2995E+00
			238.00		760.43E-03		5.3070E+00
			240.00		750.64E-03		5.2995E+00
			242.00		742.44E-03		5.2950E+00
			244.00		736.27E-03		5.3100E+00
			246.00		725.83E-03		5.3070E+00
			248.00		720.07E-03		5.2995E+00
			250.00		710.70E-03		5.3010E+00
			252.00		704.19E-03		5.3040E+00
			254.00		697.22E-03		5.2950E+00
			256.00		689.21E-03		5.2965E+00
			258.00		681.35E-03		5.2995E+00
			260.00		672.67E-03		5.3010E+00
			262.00		668.29E-03		5.2845E+00
			264.00		660.17E-03		5.2950E+00
			266.00		653.00E-03		5.2980E+00
			268.00		644.66E-03		5.2995E+00
			270.00		639.73E-03		5.3010E+00
			272.00		632.60E-03		5.3010E+00
			274.00		625.66E-03		5.2965E+00
			276.00		620.71E-03		5.3010E+00
			278.00		611.04E-03		5.2965E+00
			280.00		608.14E-03		5.3100E+00
			282.00		598.65E-03		5.3160E+00
			284.00		594.57E-03		5.3040E+00
			286.00		587.31E-03		5.3175E+00
			288.00		582.24E-03		5.3205E+00
			290.00		574.81E-03		5.3235E+00
			292.00		569.01E-03		5.3430E+00
			294.00		562.98E-03		5.3490E+00
			296.00		558.19E-03		5.3595E+00
			298.00		552.92E-03		5.3715E+00
			300.00		544.88E-03		5.3715E+00
		END_DATA
	END_SCAN  1
END_SCAN_DATA
