BEGIN_SCAN_DATA
	FORMAT=CC-Export V1.9                  
	FILE_CREATION_DATE=08-Oct-2015 10:23:02
	LAST_MODIFIED=08-Oct-2015 10:23:02
	BEGIN_SCAN  1
		TASK_NAME=tba PDD Profiles
		PROGRAM=tbaScan
		MEAS_DATE=08-Oct-2015 10:17:30
		LINAC=ELEKTA LINAC 2
		MODALITY=X
		ISOCENTER=1000.00
		INPLANE_AXIS=Inplane
		CROSSPLANE_AXIS=Crossplane
		DEPTH_AXIS=Depth
		INPLANE_AXIS_DIR=TARGET_GUN
		CROSSPLANE_AXIS_DIR=LEFT_RIGHT
		DEPTH_AXIS_DIR=UP_DOWN
		ENERGY=16.00
		NOMINAL_DMAX=15.00
		SSD=1000.00
		SCD=450.00
		BLOCK=0
		WEDGE_ANGLE=0.00
		FIELD_INPLANE=100.00
		FIELD_CROSSPLANE=100.00
		FIELD_TYPE=RECTANGULAR
		GANTRY=0.00
		GANTRY_UPRIGHT_POSITION=0
		GANTRY_ROTATION=CW
		COLL_ANGLE=0.00
		COLL_OFFSET_INPLANE=0.00
		COLL_OFFSET_CROSSPLANE=0.00
		SCAN_DEVICE=MP3
		SCAN_DEVICE_SETUP=BARA_LEFT_RIGHT
		ELECTROMETER=TANDEM
		RANGE_FIELD=AUTO
		RANGE_REFERENCE=AUTO
		DETECTOR=THIMBLE_CHAMBER
		DETECTOR_SUBCODE=SEMIFLEX
		DETECTOR_RADIUS=2.75
		DETECTOR_NAME=PTW 31010 Semiflex
		DETECTOR_SN=0000
		DETECTOR_CALIBRATION=300000000.00
		DETECTOR_IS_CALIBRATED=0
		DETECTOR_REFERENCE=THIMBLE_CHAMBER
		DETECTOR_REFERENCE_SUBCODE=SEMIFLEX
		DETECTOR_REFERENCE_RADIUS=2.75
		DETECTOR_REFERENCE_NAME=PTW 31010 Semiflex
		DETECTOR_REFERENCE_SN=0000
		DETECTOR_REFERENCE_IS_CALIBRATED=0
		DETECTOR_REFERENCE_CALIBRATION=300000000.00
		REF_FIELD_DEPTH=0.00
		REF_FIELD_DEFINED=ISOCENTER
		REF_FIELD_INPLANE=400.00
		REF_FIELD_CROSSPLANE=400.00
		REF_SCAN_POSITIONS=-5.00;-4.00;-3.00;-2.00;-1.00;0.00;1.00;2.00;3.00;4.00;5.00;6.00;7.00;8.00;9.00;10.00;11.00;12.00;13.00;14.00;15.00;16.00;17.00;18.00;19.00;20.00;21.00;22.00;23.00;24.00;25.00;26.00;27.00;28.00;29.00;30.00;31.00;32.00;33.00;34.00;35.00;36.00;37.00;38.00;39.00;40.00;41.00;42.00;43.00;44.00;45.00;46.00;47.00;48.00;49.00;50.00;51.00;52.00;53.00;54.00;55.00;56.00;57.00;58.00;59.00;60.00;61.00;62.00;63.00;64.00;65.00;66.00;67.00;68.00;69.00;70.00;71.00;72.00;73.00;74.00;75.00;76.00;77.00;78.00;79.00;80.00;81.00;82.00;83.00;84.00;85.00;86.00;87.00;88.00;89.00;90.00;91.00;92.00;93.00;94.00;95.00;96.00;97.00;98.00;99.00;100.00;101.00;102.00;103.00;104.00;105.00;106.00;107.00;108.00;109.00;110.00;111.00;112.00;113.00;114.00;115.00;116.00;117.00;118.00;119.00;120.00;121.00;122.00;123.00;124.00;125.00;126.00;127.00;128.00;129.00;130.00;131.00;132.00;133.00;134.00;135.00;136.00;137.00;138.00;139.00;140.00;141.00;142.00;143.00;144.00;145.00;146.00;147.00;148.00;149.00;150.00;151.00;152.00;153.00;154.00;155.00;156.00;157.00;158.00;159.00;160.00;161.00;162.00;163.00;164.00;165.00;166.00;167.00;168.00;169.00;170.00;171.00;172.00;173.00;174.00;175.00;176.00;177.00;178.00;179.00;180.00;181.00;182.00;183.00;184.00;185.00;186.00;187.00;188.00;189.00;190.00;191.00;192.00;193.00;194.00;195.00;196.00;197.00;198.00;199.00;200.00;201.00;202.00;203.00;204.00;205.00;206.00;207.00;208.00;209.00;210.00;211.00;212.00;213.00;214.00;215.00;216.00;217.00;218.00;219.00;220.00;221.00;222.00;223.00;224.00;225.00;226.00;227.00;228.00;229.00;230.00;231.00;232.00;233.00;234.00;235.00;236.00;237.00;238.00;239.00;240.00;241.00;242.00;243.00;244.00;245.00;246.00;247.00;248.00;249.00;250.00;251.00;252.00;253.00;254.00;255.00;256.00;257.00;258.00;259.00;260.00;261.00;262.00;263.00;264.00;265.00;266.00;267.00;268.00;269.00;270.00;271.00;272.00;273.00;274.00;275.00;276.00;277.00;278.00;279.00;280.00;281.00;282.00;283.00;284.00;285.00;286.00;287.00;288.00;289.00;290.00;291.00;292.00;293.00;294.00;295.00;296.00;297.00;298.00;299.00;300.00;301.00;302.00;303.00;304.00;305.00;306.00;307.00;308.00;309.00;310.00;311.00;312.00;313.00;314.00;315.00;316.00;317.00;318.00;319.00;320.00;321.00;322.00;323.00;324.00;325.00;326.00;327.00;328.00;329.00;330.00;331.00;332.00;333.00;334.00;335.00;336.00;337.00;338.00;339.00;340.00;341.00;342.00;343.00;344.00;345.00;346.00;347.00;348.00;349.00;350.00;
		SCAN_CURVETYPE=PDD
		SCAN_OFFAXIS_INPLANE=0.00
		SCAN_OFFAXIS_CROSSPLANE=0.00
		SCAN_ANGLE=0.00
		SCAN_DIAGONAL=NOT_DIAGONAL
		SCAN_DIRECTION=NEGATIVE
		MEAS_MEDIUM=WATER
		MEAS_PRESET=REFERENCE_DOSEMETER
		MEAS_TIME=0.200
		MEAS_UNIT=A.U.
		SCAN_SPEEDS=20.00; 5.00;40.00; 5.00;100.00; 5.00;400.00; 5.00;
		DELAY_TIMES=20.00; 0.200;150.00; 0.200;400.00; 0.200;
		PRESSURE=1013.25
		TEMPERATURE=20.00
		NORM_TEMPERATURE=20.00
		CORRECTION_FACTOR=1.0000
		EXPECTED_MAX_DOSE_RATE=3.00
		BEGIN_DATA
			0.00		956.73E-03		6.7392E+00
			1.00		995.46E-03		6.7428E+00
			2.00		1.0580E+00		6.7356E+00
			3.00		1.1603E+00		6.7392E+00
			4.00		1.3497E+00		6.7482E+00
			5.00		1.4912E+00		6.7428E+00
			6.00		1.5930E+00		6.7482E+00
			7.00		1.6731E+00		6.7392E+00
			8.00		1.7293E+00		6.7554E+00
			9.00		1.7815E+00		6.7464E+00
			10.00		1.8280E+00		6.7284E+00
			11.00		1.8579E+00		6.7266E+00
			12.00		1.8759E+00		6.7446E+00
			13.00		1.9002E+00		6.7284E+00
			14.00		1.9071E+00		6.7428E+00
			15.00		1.9156E+00		6.7428E+00
			16.00		1.9231E+00		6.7374E+00
			17.00		1.9223E+00		6.7428E+00
			18.00		1.9249E+00		6.7392E+00
			19.00		1.9236E+00		6.7410E+00
			20.00		1.9241E+00		6.7356E+00
			21.00		1.9195E+00		6.7320E+00
			22.00		1.9131E+00		6.7338E+00
			23.00		1.9053E+00		6.7482E+00
			24.00		1.9038E+00		6.7374E+00
			25.00		1.8946E+00		6.7428E+00
			26.00		1.8903E+00		6.7302E+00
			27.00		1.8801E+00		6.7392E+00
			28.00		1.8713E+00		6.7410E+00
			29.00		1.8653E+00		6.7356E+00
			30.00		1.8571E+00		6.7392E+00
			31.00		1.8461E+00		6.7356E+00
			32.00		1.8421E+00		6.7248E+00
			33.00		1.8349E+00		6.7284E+00
			34.00		1.8196E+00		6.7446E+00
			35.00		1.8126E+00		6.7428E+00
			36.00		1.8048E+00		6.7320E+00
			37.00		1.8007E+00		6.7194E+00
			38.00		1.7842E+00		6.7410E+00
			39.00		1.7804E+00		6.7392E+00
			40.00		1.7700E+00		6.7374E+00
			41.00		1.7629E+00		6.7428E+00
			42.00		1.7536E+00		6.7428E+00
			43.00		1.7451E+00		6.7446E+00
			44.00		1.7337E+00		6.7518E+00
			45.00		1.7286E+00		6.7392E+00
			46.00		1.7205E+00		6.7374E+00
			47.00		1.7124E+00		6.7410E+00
			48.00		1.7064E+00		6.7374E+00
			49.00		1.6978E+00		6.7374E+00
			50.00		1.6880E+00		6.7374E+00
			51.00		1.6812E+00		6.7356E+00
			52.00		1.6689E+00		6.7464E+00
			53.00		1.6618E+00		6.7428E+00
			54.00		1.6547E+00		6.7410E+00
			55.00		1.6491E+00		6.7302E+00
			56.00		1.6353E+00		6.7464E+00
			57.00		1.6295E+00		6.7428E+00
			58.00		1.6218E+00		6.7392E+00
			59.00		1.6152E+00		6.7356E+00
			60.00		1.6066E+00		6.7356E+00
			61.00		1.5986E+00		6.7356E+00
			62.00		1.5905E+00		6.7392E+00
			63.00		1.5847E+00		6.7356E+00
			64.00		1.5741E+00		6.7410E+00
			65.00		1.5665E+00		6.7356E+00
			66.00		1.5546E+00		6.7446E+00
			67.00		1.5460E+00		6.7482E+00
			68.00		1.5403E+00		6.7428E+00
			69.00		1.5339E+00		6.7392E+00
			70.00		1.5286E+00		6.7356E+00
			71.00		1.5167E+00		6.7446E+00
			72.00		1.5085E+00		6.7392E+00
			73.00		1.4996E+00		6.7446E+00
			74.00		1.4936E+00		6.7392E+00
			75.00		1.4853E+00		6.7428E+00
			76.00		1.4769E+00		6.7410E+00
			77.00		1.4704E+00		6.7392E+00
			78.00		1.4652E+00		6.7410E+00
			79.00		1.4603E+00		6.7266E+00
			80.00		1.4511E+00		6.7356E+00
			81.00		1.4407E+00		6.7392E+00
			82.00		1.4325E+00		6.7374E+00
			83.00		1.4304E+00		6.7248E+00
			84.00		1.4193E+00		6.7356E+00
			85.00		1.4090E+00		6.7374E+00
			86.00		1.4028E+00		6.7392E+00
			87.00		1.4003E+00		6.7230E+00
			88.00		1.3889E+00		6.7392E+00
			89.00		1.3800E+00		6.7410E+00
			90.00		1.3759E+00		6.7284E+00
			91.00		1.3662E+00		6.7392E+00
			92.00		1.3593E+00		6.7374E+00
			93.00		1.3520E+00		6.7392E+00
			94.00		1.3474E+00		6.7302E+00
			95.00		1.3389E+00		6.7338E+00
			96.00		1.3326E+00		6.7320E+00
			97.00		1.3226E+00		6.7410E+00
			98.00		1.3154E+00		6.7392E+00
			99.00		1.3099E+00		6.7428E+00
			100.00		1.3017E+00		6.7356E+00
			101.00		1.2979E+00		6.7302E+00
			102.00		1.2911E+00		6.7284E+00
			103.00		1.2818E+00		6.7392E+00
			104.00		1.2759E+00		6.7338E+00
			105.00		1.2686E+00		6.7356E+00
			106.00		1.2609E+00		6.7410E+00
			107.00		1.2572E+00		6.7266E+00
			108.00		1.2471E+00		6.7374E+00
			109.00		1.2409E+00		6.7392E+00
			110.00		1.2376E+00		6.7266E+00
			111.00		1.2279E+00		6.7302E+00
			112.00		1.2219E+00		6.7338E+00
			113.00		1.2165E+00		6.7248E+00
			114.00		1.2057E+00		6.7392E+00
			115.00		1.2001E+00		6.7374E+00
			116.00		1.1962E+00		6.7356E+00
			117.00		1.1937E+00		6.7086E+00
			118.00		1.1801E+00		6.7374E+00
			119.00		1.1759E+00		6.7338E+00
			120.00		1.1713E+00		6.7266E+00
			121.00		1.1655E+00		6.7230E+00
			122.00		1.1572E+00		6.7338E+00
			123.00		1.1496E+00		6.7392E+00
			124.00		1.1443E+00		6.7338E+00
			125.00		1.1399E+00		6.7284E+00
			126.00		1.1292E+00		6.7428E+00
			127.00		1.1264E+00		6.7356E+00
			128.00		1.1213E+00		6.7230E+00
			129.00		1.1125E+00		6.7374E+00
			130.00		1.1061E+00		6.7356E+00
			131.00		1.1002E+00		6.7374E+00
			132.00		1.0960E+00		6.7338E+00
			133.00		1.0904E+00		6.7284E+00
			134.00		1.0850E+00		6.7320E+00
			135.00		1.0773E+00		6.7338E+00
			136.00		1.0717E+00		6.7320E+00
			137.00		1.0652E+00		6.7338E+00
			138.00		1.0616E+00		6.7248E+00
			139.00		1.0551E+00		6.7284E+00
			140.00		1.0523E+00		6.7104E+00
			141.00		1.0423E+00		6.7302E+00
			142.00		1.0355E+00		6.7374E+00
			143.00		1.0307E+00		6.7338E+00
			144.00		1.0254E+00		6.7356E+00
			145.00		1.0206E+00		6.7284E+00
			146.00		1.0158E+00		6.7284E+00
			147.00		1.0078E+00		6.7320E+00
			148.00		1.0019E+00		6.7320E+00
			149.00		997.33E-03		6.7356E+00
			150.00		992.78E-03		6.7320E+00
			151.00		988.23E-03		6.7266E+00
			152.00		980.48E-03		6.7302E+00
			153.00		974.37E-03		6.7428E+00
			154.00		970.83E-03		6.7266E+00
			155.00		963.92E-03		6.7356E+00
			156.00		961.98E-03		6.7230E+00
			157.00		955.30E-03		6.7248E+00
			158.00		946.81E-03		6.7338E+00
			159.00		943.79E-03		6.7248E+00
			160.00		937.98E-03		6.7338E+00
			161.00		935.19E-03		6.7212E+00
			162.00		929.59E-03		6.7230E+00
			163.00		921.70E-03		6.7356E+00
			164.00		918.88E-03		6.7230E+00
			165.00		913.37E-03		6.7320E+00
			166.00		910.99E-03		6.7140E+00
			167.00		903.16E-03		6.7284E+00
			168.00		899.57E-03		6.7212E+00
			169.00		894.16E-03		6.7176E+00
			170.00		888.15E-03		6.7266E+00
			171.00		885.29E-03		6.7158E+00
			172.00		881.53E-03		6.7158E+00
			173.00		873.70E-03		6.7266E+00
			174.00		868.72E-03		6.7320E+00
			175.00		864.83E-03		6.7248E+00
			176.00		858.56E-03		6.7320E+00
			177.00		857.95E-03		6.7158E+00
			178.00		850.68E-03		6.7266E+00
			179.00		845.02E-03		6.7248E+00
			180.00		841.01E-03		6.7248E+00
			181.00		836.86E-03		6.7194E+00
			182.00		833.51E-03		6.7140E+00
			183.00		828.78E-03		6.7176E+00
			184.00		821.61E-03		6.7302E+00
			185.00		818.69E-03		6.7212E+00
			186.00		810.96E-03		6.7320E+00
			187.00		810.49E-03		6.7248E+00
			188.00		805.95E-03		6.7158E+00
			189.00		802.84E-03		6.7104E+00
			190.00		797.91E-03		6.7158E+00
			191.00		792.39E-03		6.7194E+00
			192.00		784.59E-03		6.7266E+00
			193.00		784.30E-03		6.7176E+00
			194.00		780.64E-03		6.7122E+00
			195.00		776.50E-03		6.7086E+00
			196.00		770.84E-03		6.7158E+00
			197.00		767.29E-03		6.7140E+00
			198.00		763.82E-03		6.7068E+00
			199.00		759.86E-03		6.7086E+00
			200.00		755.03E-03		6.7086E+00
			201.00		750.40E-03		6.7140E+00
			202.00		745.58E-03		6.7140E+00
			203.00		743.23E-03		6.7086E+00
			204.00		737.41E-03		6.7176E+00
			205.00		731.46E-03		6.7230E+00
			206.00		730.69E-03		6.7104E+00
			207.00		725.47E-03		6.7140E+00
			208.00		722.91E-03		6.7104E+00
			209.00		718.23E-03		6.7140E+00
			210.00		714.40E-03		6.7122E+00
			211.00		710.46E-03		6.7140E+00
			212.00		707.38E-03		6.7050E+00
			213.00		703.17E-03		6.7068E+00
			214.00		697.13E-03		6.7158E+00
			215.00		694.39E-03		6.7086E+00
			216.00		691.63E-03		6.7068E+00
			217.00		688.41E-03		6.7068E+00
			218.00		683.86E-03		6.7014E+00
			219.00		678.83E-03		6.7086E+00
			220.00		676.42E-03		6.7086E+00
			221.00		670.77E-03		6.7194E+00
			222.00		669.17E-03		6.7086E+00
			223.00		665.23E-03		6.7050E+00
			224.00		662.02E-03		6.7104E+00
			225.00		658.08E-03		6.7068E+00
			226.00		654.50E-03		6.7050E+00
			227.00		650.56E-03		6.7068E+00
			228.00		647.42E-03		6.7032E+00
			229.00		642.51E-03		6.7068E+00
			230.00		640.61E-03		6.7014E+00
			231.00		637.39E-03		6.7014E+00
			232.00		634.07E-03		6.6996E+00
			233.00		629.87E-03		6.7014E+00
			234.00		625.67E-03		6.7032E+00
			235.00		624.03E-03		6.6978E+00
			236.00		621.13E-03		6.6942E+00
			237.00		617.54E-03		6.6924E+00
			238.00		613.11E-03		6.6996E+00
			239.00		609.29E-03		6.7032E+00
			240.00		606.83E-03		6.6978E+00
			241.00		605.17E-03		6.6834E+00
			242.00		598.98E-03		6.6924E+00
			243.00		597.53E-03		6.6996E+00
			244.00		593.71E-03		6.6942E+00
			245.00		593.48E-03		6.6816E+00
			246.00		587.95E-03		6.6924E+00
			247.00		583.65E-03		6.6924E+00
			248.00		581.70E-03		6.6870E+00
			249.00		579.00E-03		6.6870E+00
			250.00		574.85E-03		6.6852E+00
			251.00		571.62E-03		6.6852E+00
			252.00		567.70E-03		6.6870E+00
			253.00		565.73E-03		6.6816E+00
			254.00		561.84E-03		6.6798E+00
			255.00		559.77E-03		6.6852E+00
			256.00		557.53E-03		6.6798E+00
			257.00		553.61E-03		6.6816E+00
			258.00		550.55E-03		6.6762E+00
			259.00		547.14E-03		6.6816E+00
			260.00		545.68E-03		6.6798E+00
			261.00		542.49E-03		6.6726E+00
			262.00		540.10E-03		6.6654E+00
			263.00		536.45E-03		6.6672E+00
			264.00		533.33E-03		6.6690E+00
			265.00		530.51E-03		6.6672E+00
			266.00		528.21E-03		6.6690E+00
			267.00		525.12E-03		6.6636E+00
			268.00		522.56E-03		6.6618E+00
			269.00		518.37E-03		6.6636E+00
			270.00		515.80E-03		6.6654E+00
			271.00		514.33E-03		6.6564E+00
			272.00		510.40E-03		6.6618E+00
			273.00		507.97E-03		6.6618E+00
			274.00		505.27E-03		6.6582E+00
			275.00		502.16E-03		6.6564E+00
			276.00		500.54E-03		6.6528E+00
			277.00		497.02E-03		6.6528E+00
			278.00		493.51E-03		6.6528E+00
			279.00		492.95E-03		6.6384E+00
			280.00		488.49E-03		6.6474E+00
			281.00		485.23E-03		6.6402E+00
			282.00		484.54E-03		6.6384E+00
			283.00		482.34E-03		6.6240E+00
			284.00		478.44E-03		6.6366E+00
			285.00		477.33E-03		6.6294E+00
			286.00		473.00E-03		6.6330E+00
			287.00		469.74E-03		6.6330E+00
			288.00		468.22E-03		6.6276E+00
			289.00		466.30E-03		6.6240E+00
			290.00		463.40E-03		6.6150E+00
			291.00		462.96E-03		6.6096E+00
			292.00		457.46E-03		6.6222E+00
			293.00		456.33E-03		6.6150E+00
			294.00		451.85E-03		6.6168E+00
			295.00		453.26E-03		6.6042E+00
			296.00		450.23E-03		6.6006E+00
			297.00		446.96E-03		6.6006E+00
			298.00		445.47E-03		6.6024E+00
			299.00		441.93E-03		6.6024E+00
			300.00		441.20E-03		6.5970E+00
		END_DATA
	END_SCAN  1
END_SCAN_DATA
