BEGIN_SCAN_DATA
	FORMAT=CC-Export V1.9                  
	FILE_CREATION_DATE=17-Aug-2022 18:04:33
	LAST_MODIFIED=17-Aug-2022 18:04:33
	BEGIN_SCAN  1
		TASK_NAME=tba PDD Profiles
		PROGRAM=WaterTankScans
		MEAS_DATE=17-Aug-2022 18:02:29
		LINAC=L3 ELEKTA SYNERGY
		MODALITY=X
		ISOCENTER=1000.00
		INPLANE_AXIS=Inplane
		CROSSPLANE_AXIS=Crossplane
		DEPTH_AXIS=Depth
		INPLANE_AXIS_DIR=GUN_TARGET
		CROSSPLANE_AXIS_DIR=LEFT_RIGHT
		DEPTH_AXIS_DIR=UP_DOWN
		ENERGY=18.00
		NOMINAL_DMAX=30.00
		SSD=1000.00
		SCD=450.00
		BLOCK=0
		WEDGE_ANGLE=0.00
		FIELD_INPLANE=100.00
		FIELD_CROSSPLANE=100.00
		FIELD_TYPE=RECTANGULAR
		GANTRY=0.00
		GANTRY_UPRIGHT_POSITION=0
		GANTRY_ROTATION=CW
		COLL_ANGLE=0.00
		COLL_OFFSET_INPLANE=0.00
		COLL_OFFSET_CROSSPLANE=0.00
		SCAN_DEVICE=BeamScan
		SCAN_DEVICE_SETUP=BARA_LEFT_RIGHT
		ELECTROMETER=BeamScan
		RANGE_FIELD=LOW
		RANGE_REFERENCE=LOW
		DETECTOR=THIMBLE_CHAMBER
		DETECTOR_SUBCODE=SEMIFLEX
		DETECTOR_RADIUS=2.40
		DETECTOR_NAME=PTW Demo Semiflex 3D
		DETECTOR_SN=Demo
		DETECTOR_CALIBRATION=500000000.00
		DETECTOR_IS_CALIBRATED=1
		DETECTOR_REFERENCE=THIMBLE_CHAMBER
		DETECTOR_REFERENCE_SUBCODE=SEMIFLEX
		DETECTOR_REFERENCE_RADIUS=2.40
		DETECTOR_REFERENCE_NAME=PTW Demo Semiflex 3D
		DETECTOR_REFERENCE_SN=Demo
		DETECTOR_REFERENCE_IS_CALIBRATED=1
		DETECTOR_REFERENCE_CALIBRATION=500000000.00
		DETECTOR_HV=400.0
		DETECTOR_REFERENCE_HV=400.0
		DETECTOR_ORIENTATION=HORIZONTAL
		FILTER=FF
		SCAN_SPEED_PROFILE=10.00
		SCAN_PROF_SPEED_DEP=NONE
		SCAN_SPEED_PDD=10.00
		SCAN_PDD_SPEED_DEP=NONE
		REF_FIELD_DEPTH=0.00
		REF_FIELD_DEFINED=ISOCENTER
		REF_FIELD_INPLANE=100.00
		REF_FIELD_CROSSPLANE=100.00
		REF_SCAN_POSITIONS=0.00;1.00;2.00;3.00;4.00;5.00;6.00;7.00;8.00;9.00;10.00;11.00;12.00;13.00;14.00;15.00;16.00;17.00;18.00;19.00;20.00;21.00;22.00;23.00;24.00;25.00;26.00;27.00;28.00;29.00;30.00;31.00;32.00;33.00;34.00;35.00;36.00;37.00;38.00;39.00;40.00;41.00;42.00;43.00;44.00;45.00;46.00;47.00;48.00;49.00;50.00;51.00;52.00;53.00;54.00;55.00;56.00;57.00;58.00;59.00;60.00;61.00;62.00;63.00;64.00;65.00;66.00;67.00;68.00;69.00;70.00;71.00;72.00;73.00;74.00;75.00;76.00;77.00;78.00;79.00;80.00;81.00;82.00;83.00;84.00;85.00;86.00;87.00;88.00;89.00;90.00;91.00;92.00;93.00;94.00;95.00;96.00;97.00;98.00;99.00;100.00;101.00;102.00;103.00;104.00;105.00;106.00;107.00;108.00;109.00;110.00;111.00;112.00;113.00;114.00;115.00;116.00;117.00;118.00;119.00;120.00;121.00;122.00;123.00;124.00;125.00;126.00;127.00;128.00;129.00;130.00;131.00;132.00;133.00;134.00;135.00;136.00;137.00;138.00;139.00;140.00;141.00;142.00;143.00;144.00;145.00;146.00;147.00;148.00;149.00;150.00;151.00;152.00;153.00;154.00;155.00;156.00;157.00;158.00;159.00;160.00;161.00;162.00;163.00;164.00;165.00;166.00;167.00;168.00;169.00;170.00;171.00;172.00;173.00;174.00;175.00;176.00;177.00;178.00;179.00;180.00;181.00;182.00;183.00;184.00;185.00;186.00;187.00;188.00;189.00;190.00;191.00;192.00;193.00;194.00;195.00;196.00;197.00;198.00;199.00;200.00;201.00;202.00;203.00;204.00;205.00;206.00;207.00;208.00;209.00;210.00;211.00;212.00;213.00;214.00;215.00;216.00;217.00;218.00;219.00;220.00;221.00;222.00;223.00;224.00;225.00;226.00;227.00;228.00;229.00;230.00;231.00;232.00;233.00;234.00;235.00;236.00;237.00;238.00;239.00;240.00;241.00;242.00;243.00;244.00;245.00;246.00;247.00;248.00;249.00;250.00;251.00;252.00;253.00;254.00;255.00;256.00;257.00;258.00;259.00;260.00;261.00;262.00;263.00;264.00;265.00;266.00;267.00;268.00;269.00;270.00;271.00;272.00;273.00;274.00;275.00;276.00;277.00;278.00;279.00;280.00;281.00;282.00;283.00;284.00;285.00;286.00;287.00;288.00;289.00;290.00;291.00;292.00;293.00;294.00;295.00;296.00;297.00;298.00;299.00;300.00;
		SCAN_CURVETYPE=PDD
		SCAN_OFFAXIS_INPLANE=0.00
		SCAN_OFFAXIS_CROSSPLANE=0.00
		SCAN_ANGLE=0.00
		SCAN_DIAGONAL=NOT_DIAGONAL
		SCAN_DIRECTION=NEGATIVE
		MEAS_MEDIUM=WATER
		MEAS_PRESET=MEAS_CONTINUOUS_REFERENCE_SCAN
		MEAS_TIME=0.100
		MEAS_UNIT=A.U.
		PRESSURE=1013.25
		TEMPERATURE=20.00
		NORM_TEMPERATURE=20.00
		CORRECTION_FACTOR=1.0000
		EXPECTED_MAX_DOSE_RATE=3.00
		BEGIN_DATA
			0.00		897.70E-03		1.6863E+00
			1.00		959.00E-03		1.6902E+00
			2.00		1.0873E+00		1.6902E+00
			3.00		1.3100E+00		1.6908E+00
			4.00		1.5091E+00		1.6935E+00
			5.00		1.6730E+00		1.6917E+00
			6.00		1.8121E+00		1.6920E+00
			7.00		1.9335E+00		1.6881E+00
			8.00		2.0506E+00		1.6956E+00
			9.00		2.1573E+00		1.6938E+00
			10.00		2.2421E+00		1.6953E+00
			11.00		2.3110E+00		1.6902E+00
			12.00		2.3785E+00		1.6914E+00
			13.00		2.4354E+00		1.6938E+00
			14.00		2.4867E+00		1.6962E+00
			15.00		2.5439E+00		1.6911E+00
			16.00		2.5848E+00		1.6887E+00
			17.00		2.6118E+00		1.6839E+00
			18.00		2.6434E+00		1.6899E+00
			19.00		2.6701E+00		1.6887E+00
			20.00		2.7036E+00		1.6833E+00
			21.00		2.7168E+00		1.6851E+00
			22.00		2.7297E+00		1.6881E+00
			23.00		2.7465E+00		1.6887E+00
			24.00		2.7591E+00		1.6875E+00
			25.00		2.7603E+00		1.6911E+00
			26.00		2.7669E+00		1.6947E+00
			27.00		2.7687E+00		1.6860E+00
			28.00		2.7839E+00		1.6908E+00
			29.00		2.7846E+00		1.6893E+00
			30.00		2.7795E+00		1.6935E+00
			31.00		2.7893E+00		1.6875E+00
			32.00		2.7785E+00		1.6941E+00
			33.00		2.7728E+00		1.6911E+00
			34.00		2.7650E+00		1.6926E+00
			35.00		2.7716E+00		1.6875E+00
			36.00		2.7649E+00		1.6905E+00
			37.00		2.7674E+00		1.6803E+00
			38.00		2.7599E+00		1.6881E+00
			39.00		2.7411E+00		1.6953E+00
			40.00		2.7416E+00		1.6917E+00
			41.00		2.7366E+00		1.6926E+00
			42.00		2.7242E+00		1.6926E+00
			43.00		2.7299E+00		1.6869E+00
			44.00		2.7121E+00		1.6935E+00
			45.00		2.7040E+00		1.6875E+00
			46.00		2.6934E+00		1.6908E+00
			47.00		2.6839E+00		1.6800E+00
			48.00		2.6790E+00		1.6842E+00
			49.00		2.6670E+00		1.6929E+00
			50.00		2.6510E+00		1.6986E+00
			51.00		2.6378E+00		1.6980E+00
			52.00		2.6377E+00		1.6935E+00
			53.00		2.6357E+00		1.6857E+00
			54.00		2.6198E+00		1.6845E+00
			55.00		2.6093E+00		1.6878E+00
			56.00		2.6057E+00		1.6809E+00
			57.00		2.5885E+00		1.6863E+00
			58.00		2.5808E+00		1.6890E+00
			59.00		2.5719E+00		1.6890E+00
			60.00		2.5567E+00		1.6932E+00
			61.00		2.5443E+00		1.6944E+00
			62.00		2.5395E+00		1.6893E+00
			63.00		2.5279E+00		1.6923E+00
			64.00		2.5200E+00		1.6905E+00
			65.00		2.5040E+00		1.6917E+00
			66.00		2.4996E+00		1.6863E+00
			67.00		2.4858E+00		1.6848E+00
			68.00		2.4756E+00		1.6881E+00
			69.00		2.4746E+00		1.6851E+00
			70.00		2.4609E+00		1.6884E+00
			71.00		2.4437E+00		1.6917E+00
			72.00		2.4374E+00		1.6899E+00
			73.00		2.4207E+00		1.6929E+00
			74.00		2.4276E+00		1.6881E+00
			75.00		2.4128E+00		1.6935E+00
			76.00		2.4030E+00		1.6929E+00
			77.00		2.3928E+00		1.6863E+00
			78.00		2.3818E+00		1.6941E+00
			79.00		2.3764E+00		1.6929E+00
			80.00		2.3637E+00		1.6944E+00
			81.00		2.3493E+00		1.6971E+00
			82.00		2.3404E+00		1.6959E+00
			83.00		2.3377E+00		1.6914E+00
			84.00		2.3267E+00		1.6878E+00
			85.00		2.3181E+00		1.6863E+00
			86.00		2.3055E+00		1.6851E+00
			87.00		2.2998E+00		1.6854E+00
			88.00		2.2921E+00		1.6884E+00
			89.00		2.2794E+00		1.6899E+00
			90.00		2.2667E+00		1.6941E+00
			91.00		2.2606E+00		1.6920E+00
			92.00		2.2526E+00		1.6914E+00
			93.00		2.2449E+00		1.6905E+00
			94.00		2.2337E+00		1.6896E+00
			95.00		2.2258E+00		1.6875E+00
			96.00		2.2173E+00		1.6872E+00
			97.00		2.2072E+00		1.6827E+00
			98.00		2.1877E+00		1.6908E+00
			99.00		2.1881E+00		1.6878E+00
			100.00		2.1766E+00		1.6884E+00
			101.00		2.1748E+00		1.6857E+00
			102.00		2.1597E+00		1.6905E+00
			103.00		2.1528E+00		1.6890E+00
			104.00		2.1406E+00		1.6902E+00
			105.00		2.1393E+00		1.6884E+00
			106.00		2.1270E+00		1.6911E+00
			107.00		2.1171E+00		1.6905E+00
			108.00		2.1129E+00		1.6896E+00
			109.00		2.0982E+00		1.6929E+00
			110.00		2.0857E+00		1.6944E+00
			111.00		2.0790E+00		1.6941E+00
			112.00		2.0720E+00		1.6911E+00
			113.00		2.0640E+00		1.6875E+00
			114.00		2.0615E+00		1.6866E+00
			115.00		2.0505E+00		1.6869E+00
			116.00		2.0384E+00		1.6881E+00
			117.00		2.0266E+00		1.6890E+00
			118.00		2.0242E+00		1.6851E+00
			119.00		2.0174E+00		1.6878E+00
			120.00		2.0157E+00		1.6848E+00
			121.00		1.9996E+00		1.6878E+00
			122.00		1.9851E+00		1.6896E+00
			123.00		1.9865E+00		1.6884E+00
			124.00		1.9692E+00		1.6941E+00
			125.00		1.9673E+00		1.6881E+00
			126.00		1.9594E+00		1.6842E+00
			127.00		1.9475E+00		1.6929E+00
			128.00		1.9370E+00		1.6944E+00
			129.00		1.9360E+00		1.6875E+00
			130.00		1.9324E+00		1.6860E+00
			131.00		1.9196E+00		1.6863E+00
			132.00		1.9108E+00		1.6878E+00
			133.00		1.9017E+00		1.6911E+00
			134.00		1.8970E+00		1.6890E+00
			135.00		1.8822E+00		1.6911E+00
			136.00		1.8774E+00		1.6938E+00
			137.00		1.8707E+00		1.6935E+00
			138.00		1.8641E+00		1.6914E+00
			139.00		1.8578E+00		1.6875E+00
			140.00		1.8482E+00		1.6881E+00
			141.00		1.8400E+00		1.6842E+00
			142.00		1.8303E+00		1.6899E+00
			143.00		1.8185E+00		1.6926E+00
			144.00		1.8164E+00		1.6896E+00
			145.00		1.8030E+00		1.6938E+00
			146.00		1.8026E+00		1.6926E+00
			147.00		1.7985E+00		1.6914E+00
			148.00		1.7927E+00		1.6902E+00
			149.00		1.7802E+00		1.6953E+00
			150.00		1.7731E+00		1.6896E+00
			151.00		1.7654E+00		1.6893E+00
			152.00		1.7598E+00		1.6887E+00
			153.00		1.7515E+00		1.6887E+00
			154.00		1.7465E+00		1.6875E+00
			155.00		1.7396E+00		1.6875E+00
			156.00		1.7270E+00		1.6881E+00
			157.00		1.7253E+00		1.6896E+00
			158.00		1.7112E+00		1.6944E+00
			159.00		1.7061E+00		1.6944E+00
			160.00		1.6996E+00		1.6947E+00
			161.00		1.6929E+00		1.6902E+00
			162.00		1.6859E+00		1.6923E+00
			163.00		1.6830E+00		1.6881E+00
			164.00		1.6727E+00		1.6902E+00
			165.00		1.6653E+00		1.6869E+00
			166.00		1.6612E+00		1.6875E+00
			167.00		1.6543E+00		1.6872E+00
			168.00		1.6423E+00		1.6923E+00
			169.00		1.6357E+00		1.6908E+00
			170.00		1.6303E+00		1.6911E+00
			171.00		1.6221E+00		1.6923E+00
			172.00		1.6185E+00		1.6917E+00
			173.00		1.6113E+00		1.6893E+00
			174.00		1.6012E+00		1.6887E+00
			175.00		1.5996E+00		1.6872E+00
			176.00		1.5932E+00		1.6851E+00
			177.00		1.5816E+00		1.6863E+00
			178.00		1.5786E+00		1.6914E+00
			179.00		1.5691E+00		1.6920E+00
			180.00		1.5591E+00		1.6929E+00
			181.00		1.5537E+00		1.6938E+00
			182.00		1.5550E+00		1.6842E+00
			183.00		1.5448E+00		1.6845E+00
			184.00		1.5365E+00		1.6866E+00
			185.00		1.5352E+00		1.6800E+00
			186.00		1.5257E+00		1.6875E+00
			187.00		1.5218E+00		1.6857E+00
			188.00		1.5141E+00		1.6917E+00
			189.00		1.5084E+00		1.6941E+00
			190.00		1.5011E+00		1.6944E+00
			191.00		1.4981E+00		1.6875E+00
			192.00		1.4887E+00		1.6917E+00
			193.00		1.4804E+00		1.6893E+00
			194.00		1.4792E+00		1.6848E+00
			195.00		1.4702E+00		1.6914E+00
			196.00		1.4610E+00		1.6932E+00
			197.00		1.4577E+00		1.6863E+00
			198.00		1.4508E+00		1.6890E+00
			199.00		1.4478E+00		1.6896E+00
			200.00		1.4412E+00		1.6869E+00
			201.00		1.4326E+00		1.6845E+00
			202.00		1.4281E+00		1.6860E+00
			203.00		1.4177E+00		1.6893E+00
			204.00		1.4132E+00		1.6896E+00
			205.00		1.4093E+00		1.6896E+00
			206.00		1.4068E+00		1.6887E+00
			207.00		1.4002E+00		1.6896E+00
			208.00		1.3917E+00		1.6917E+00
			209.00		1.3888E+00		1.6869E+00
			210.00		1.3756E+00		1.6932E+00
			211.00		1.3751E+00		1.6866E+00
			212.00		1.3675E+00		1.6872E+00
			213.00		1.3615E+00		1.6896E+00
			214.00		1.3586E+00		1.6875E+00
			215.00		1.3509E+00		1.6938E+00
			216.00		1.3481E+00		1.6857E+00
			217.00		1.3424E+00		1.6848E+00
			218.00		1.3365E+00		1.6821E+00
			219.00		1.3328E+00		1.6857E+00
			220.00		1.3207E+00		1.6932E+00
			221.00		1.3184E+00		1.6914E+00
			222.00		1.3149E+00		1.6890E+00
			223.00		1.3066E+00		1.6920E+00
			224.00		1.3000E+00		1.6911E+00
			225.00		1.2986E+00		1.6929E+00
			226.00		1.2912E+00		1.6884E+00
			227.00		1.2859E+00		1.6905E+00
			228.00		1.2839E+00		1.6845E+00
			229.00		1.2736E+00		1.6896E+00
			230.00		1.2675E+00		1.6911E+00
			231.00		1.2643E+00		1.6836E+00
			232.00		1.2628E+00		1.6794E+00
			233.00		1.2597E+00		1.6806E+00
			234.00		1.2503E+00		1.6866E+00
			235.00		1.2465E+00		1.6890E+00
			236.00		1.2403E+00		1.6839E+00
			237.00		1.2340E+00		1.6872E+00
			238.00		1.2294E+00		1.6935E+00
			239.00		1.2253E+00		1.6935E+00
			240.00		1.2196E+00		1.6884E+00
			241.00		1.2139E+00		1.6887E+00
			242.00		1.2134E+00		1.6854E+00
			243.00		1.2039E+00		1.6905E+00
			244.00		1.2019E+00		1.6848E+00
			245.00		1.1978E+00		1.6863E+00
			246.00		1.1872E+00		1.6908E+00
			247.00		1.1813E+00		1.6947E+00
			248.00		1.1813E+00		1.6860E+00
			249.00		1.1754E+00		1.6848E+00
			250.00		1.1681E+00		1.6902E+00
			251.00		1.1664E+00		1.6872E+00
			252.00		1.1598E+00		1.6911E+00
			253.00		1.1558E+00		1.6869E+00
			254.00		1.1481E+00		1.6875E+00
			255.00		1.1423E+00		1.6887E+00
			256.00		1.1413E+00		1.6905E+00
			257.00		1.1336E+00		1.6911E+00
			258.00		1.1335E+00		1.6893E+00
			259.00		1.1267E+00		1.6881E+00
			260.00		1.1219E+00		1.6878E+00
			261.00		1.1173E+00		1.6875E+00
			262.00		1.1114E+00		1.6884E+00
			263.00		1.1074E+00		1.6869E+00
			264.00		1.1056E+00		1.6875E+00
			265.00		1.1023E+00		1.6803E+00
			266.00		1.0943E+00		1.6863E+00
			267.00		1.0888E+00		1.6932E+00
			268.00		1.0849E+00		1.6890E+00
			269.00		1.0804E+00		1.6872E+00
			270.00		1.0783E+00		1.6902E+00
			271.00		1.0722E+00		1.6917E+00
			272.00		1.0720E+00		1.6836E+00
			273.00		1.0613E+00		1.6893E+00
			274.00		1.0582E+00		1.6917E+00
			275.00		1.0588E+00		1.6845E+00
			276.00		1.0498E+00		1.6860E+00
			277.00		1.0494E+00		1.6815E+00
			278.00		1.0422E+00		1.6851E+00
			279.00		1.0413E+00		1.6833E+00
			280.00		1.0325E+00		1.6905E+00
			281.00		1.0309E+00		1.6872E+00
			282.00		1.0294E+00		1.6833E+00
			283.00		1.0223E+00		1.6845E+00
			284.00		1.0182E+00		1.6857E+00
			285.00		1.0123E+00		1.6863E+00
			286.00		1.0103E+00		1.6851E+00
			287.00		1.0046E+00		1.6857E+00
			288.00		1.0028E+00		1.6863E+00
			289.00		998.57E-03		1.6842E+00
			290.00		997.15E-03		1.6857E+00
			291.00		987.37E-03		1.6860E+00
			292.00		988.42E-03		1.6845E+00
			293.00		983.59E-03		1.6815E+00
			294.00		979.12E-03		1.6812E+00
			295.00		973.30E-03		1.6854E+00
			296.00		969.40E-03		1.6860E+00
			297.00		965.28E-03		1.6851E+00
			298.00		964.78E-03		1.6866E+00
			299.00		958.20E-03		1.6866E+00
			300.00		954.29E-03		1.6800E+00
		END_DATA
	END_SCAN  1
END_SCAN_DATA
