BEGIN_SCAN_DATA
	FORMAT=CC-Export V1.9                  
	FILE_CREATION_DATE=14-Sep-2022 13:20:43
	LAST_MODIFIED=14-Sep-2022 13:20:43
	BEGIN_SCAN  1
		TASK_NAME=tba PDD Profiles
		PROGRAM=WaterTankScans
		MEAS_DATE=14-Sep-2022 13:20:12
		LINAC=L2 ELEKTA VERSA
		MODALITY=X
		ISOCENTER=1000.00
		INPLANE_AXIS=Inplane
		CROSSPLANE_AXIS=Crossplane
		DEPTH_AXIS=Depth
		INPLANE_AXIS_DIR=GUN_TARGET
		CROSSPLANE_AXIS_DIR=LEFT_RIGHT
		DEPTH_AXIS_DIR=UP_DOWN
		ENERGY=18.00
		NOMINAL_DMAX=30.00
		SSD=1000.00
		BLOCK=0
		WEDGE_ANGLE=0.00
		FIELD_INPLANE=100.00
		FIELD_CROSSPLANE=100.00
		FIELD_TYPE=RECTANGULAR
		GANTRY=0.00
		GANTRY_UPRIGHT_POSITION=0
		GANTRY_ROTATION=CW
		COLL_ANGLE=0.00
		COLL_OFFSET_INPLANE=0.00
		COLL_OFFSET_CROSSPLANE=0.00
		SCAN_DEVICE=BeamScan
		SCAN_DEVICE_SETUP=BARA_LEFT_RIGHT
		ELECTROMETER=BeamScan
		RANGE_FIELD=LOW
		RANGE_REFERENCE=LOW
		DETECTOR=THIMBLE_CHAMBER
		DETECTOR_SUBCODE=SEMIFLEX
		DETECTOR_RADIUS=2.40
		DETECTOR_NAME=PTW Semiflex 3D (Field)
		DETECTOR_SN=141799
		DETECTOR_CALIBRATION=500000000.00
		DETECTOR_IS_CALIBRATED=1
		DETECTOR_REFERENCE=THIMBLE_CHAMBER
		DETECTOR_REFERENCE_SUBCODE=SEMIFLEX
		DETECTOR_REFERENCE_RADIUS=2.40
		DETECTOR_REFERENCE_NAME=PTW Semiflex 3D (REF)
		DETECTOR_REFERENCE_SN=141800
		DETECTOR_REFERENCE_IS_CALIBRATED=0
		DETECTOR_REFERENCE_CALIBRATION=500000000.00
		DETECTOR_HV=400.0
		DETECTOR_REFERENCE_HV=400.0
		DETECTOR_ORIENTATION=HORIZONTAL
		FILTER=FF
		SCAN_SPEED_PROFILE=0.00
		SCAN_PROF_SPEED_DEP=DEPTH
		SCAN_SPEED_PDD=20.00
		SCAN_PDD_SPEED_DEP=ENERGY
		REF_FIELD_DEPTH=0.00
		REF_FIELD_DEFINED=WATER_SURFACE
		REF_FIELD_INPLANE=100.00
		REF_FIELD_CROSSPLANE=100.00
		REF_SCAN_POSITIONS=0.00;1.00;2.00;3.00;4.00;5.00;6.00;7.00;8.00;9.00;10.00;11.00;12.00;13.00;14.00;15.00;16.00;17.00;18.00;19.00;20.00;21.00;22.00;23.00;24.00;25.00;26.00;27.00;28.00;29.00;30.00;31.00;32.00;33.00;34.00;35.00;36.00;37.00;38.00;39.00;40.00;41.00;42.00;43.00;44.00;45.00;46.00;47.00;48.00;49.00;50.00;51.00;52.00;53.00;54.00;55.00;56.00;57.00;58.00;59.00;60.00;61.00;62.00;63.00;64.00;65.00;66.00;67.00;68.00;69.00;70.00;71.00;72.00;73.00;74.00;75.00;76.00;77.00;78.00;79.00;80.00;81.00;82.00;83.00;84.00;85.00;86.00;87.00;88.00;89.00;90.00;91.00;92.00;93.00;94.00;95.00;96.00;97.00;98.00;99.00;100.00;101.00;102.00;103.00;104.00;105.00;106.00;107.00;108.00;109.00;110.00;111.00;112.00;113.00;114.00;115.00;116.00;117.00;118.00;119.00;120.00;121.00;122.00;123.00;124.00;125.00;126.00;127.00;128.00;129.00;130.00;131.00;132.00;133.00;134.00;135.00;136.00;137.00;138.00;139.00;140.00;141.00;142.00;143.00;144.00;145.00;146.00;147.00;148.00;149.00;150.00;151.00;152.00;153.00;154.00;155.00;156.00;157.00;158.00;159.00;160.00;161.00;162.00;163.00;164.00;165.00;166.00;167.00;168.00;169.00;170.00;171.00;172.00;173.00;174.00;175.00;176.00;177.00;178.00;179.00;180.00;181.00;182.00;183.00;184.00;185.00;186.00;187.00;188.00;189.00;190.00;191.00;192.00;193.00;194.00;195.00;196.00;197.00;198.00;199.00;200.00;201.00;202.00;203.00;204.00;205.00;206.00;207.00;208.00;209.00;210.00;211.00;212.00;213.00;214.00;215.00;216.00;217.00;218.00;219.00;220.00;221.00;222.00;223.00;224.00;225.00;226.00;227.00;228.00;229.00;230.00;231.00;232.00;233.00;234.00;235.00;236.00;237.00;238.00;239.00;240.00;241.00;242.00;243.00;244.00;245.00;246.00;247.00;248.00;249.00;250.00;251.00;252.00;253.00;254.00;255.00;256.00;257.00;258.00;259.00;260.00;261.00;262.00;263.00;264.00;265.00;266.00;267.00;268.00;269.00;270.00;271.00;272.00;273.00;274.00;275.00;276.00;277.00;278.00;279.00;280.00;281.00;282.00;283.00;284.00;285.00;286.00;287.00;288.00;289.00;290.00;291.00;292.00;293.00;294.00;295.00;296.00;297.00;298.00;299.00;300.00;
		SCAN_CURVETYPE=PDD
		SCAN_OFFAXIS_INPLANE=0.00
		SCAN_OFFAXIS_CROSSPLANE=0.00
		SCAN_ANGLE=0.00
		SCAN_DIAGONAL=NOT_DIAGONAL
		SCAN_DIRECTION=NEGATIVE
		MEAS_MEDIUM=WATER
		MEAS_PRESET=MEAS_CONTINUOUS_REFERENCE_SCAN
		MEAS_TIME=0.050
		MEAS_UNIT=A.U.
		PRESSURE=1013.25
		TEMPERATURE=20.00
		NORM_TEMPERATURE=20.00
		CORRECTION_FACTOR=1.0000
		EXPECTED_MAX_DOSE_RATE=3.00
		BEGIN_DATA
			0.00		572.14E-03		2.8944E+00
			1.00		614.52E-03		2.9013E+00
			2.00		710.68E-03		2.8971E+00
			3.00		843.60E-03		2.8965E+00
			4.00		958.73E-03		2.9007E+00
			5.00		1.0545E+00		2.9103E+00
			6.00		1.1466E+00		2.8989E+00
			7.00		1.2294E+00		2.8965E+00
			8.00		1.2962E+00		2.9001E+00
			9.00		1.3569E+00		2.9007E+00
			10.00		1.4085E+00		2.9031E+00
			11.00		1.4537E+00		2.9037E+00
			12.00		1.4913E+00		2.9028E+00
			13.00		1.5295E+00		2.8989E+00
			14.00		1.5588E+00		2.9004E+00
			15.00		1.5828E+00		2.9094E+00
			16.00		1.6074E+00		2.9115E+00
			17.00		1.6286E+00		2.9049E+00
			18.00		1.6455E+00		2.9025E+00
			19.00		1.6627E+00		2.9031E+00
			20.00		1.6799E+00		2.9019E+00
			21.00		1.6823E+00		2.9157E+00
			22.00		1.6949E+00		2.9082E+00
			23.00		1.7038E+00		2.8983E+00
			24.00		1.7130E+00		2.8950E+00
			25.00		1.7169E+00		2.8953E+00
			26.00		1.7180E+00		2.8953E+00
			27.00		1.7215E+00		2.8998E+00
			28.00		1.7279E+00		2.8926E+00
			29.00		1.7238E+00		2.8890E+00
			30.00		1.7242E+00		2.8917E+00
			31.00		1.7244E+00		2.8950E+00
			32.00		1.7183E+00		2.9034E+00
			33.00		1.7179E+00		2.8989E+00
			34.00		1.7145E+00		2.9046E+00
			35.00		1.7103E+00		2.9100E+00
			36.00		1.7123E+00		2.9067E+00
			37.00		1.7066E+00		2.9022E+00
			38.00		1.7025E+00		2.9004E+00
			39.00		1.7008E+00		2.9016E+00
			40.00		1.7004E+00		2.8935E+00
			41.00		1.6853E+00		2.9034E+00
			42.00		1.6825E+00		2.9064E+00
			43.00		1.6744E+00		2.9115E+00
			44.00		1.6732E+00		2.9208E+00
			45.00		1.6711E+00		2.9010E+00
			46.00		1.6593E+00		2.9037E+00
			47.00		1.6565E+00		2.9013E+00
			48.00		1.6532E+00		2.8998E+00
			49.00		1.6431E+00		2.9049E+00
			50.00		1.6389E+00		2.8995E+00
			51.00		1.6369E+00		2.8938E+00
			52.00		1.6281E+00		2.9040E+00
			53.00		1.6205E+00		2.9121E+00
			54.00		1.6188E+00		2.9058E+00
			55.00		1.6128E+00		2.8962E+00
			56.00		1.6073E+00		2.8893E+00
			57.00		1.5927E+00		2.9082E+00
			58.00		1.5930E+00		2.9001E+00
			59.00		1.5800E+00		2.9013E+00
			60.00		1.5748E+00		2.9052E+00
			61.00		1.5697E+00		2.9031E+00
			62.00		1.5654E+00		2.8977E+00
			63.00		1.5581E+00		2.9055E+00
			64.00		1.5546E+00		2.9043E+00
			65.00		1.5467E+00		2.9016E+00
			66.00		1.5428E+00		2.9013E+00
			67.00		1.5373E+00		2.8941E+00
			68.00		1.5318E+00		2.8926E+00
			69.00		1.5260E+00		2.8977E+00
			70.00		1.5220E+00		2.8935E+00
			71.00		1.5132E+00		2.8905E+00
			72.00		1.5065E+00		2.8935E+00
			73.00		1.4935E+00		2.9046E+00
			74.00		1.4872E+00		2.8968E+00
			75.00		1.4846E+00		2.8998E+00
			76.00		1.4834E+00		2.8941E+00
			77.00		1.4716E+00		2.9010E+00
			78.00		1.4673E+00		2.8992E+00
			79.00		1.4598E+00		2.8977E+00
			80.00		1.4556E+00		2.8998E+00
			81.00		1.4501E+00		2.9025E+00
			82.00		1.4465E+00		2.8974E+00
			83.00		1.4364E+00		2.9031E+00
			84.00		1.4367E+00		2.8857E+00
			85.00		1.4265E+00		2.9022E+00
			86.00		1.4224E+00		2.9064E+00
			87.00		1.4155E+00		2.9121E+00
			88.00		1.4100E+00		2.9148E+00
			89.00		1.4076E+00		2.9028E+00
			90.00		1.3953E+00		2.8962E+00
			91.00		1.3906E+00		2.8908E+00
			92.00		1.3875E+00		2.8887E+00
			93.00		1.3840E+00		2.8917E+00
			94.00		1.3763E+00		2.8968E+00
			95.00		1.3701E+00		2.8947E+00
			96.00		1.3633E+00		2.8959E+00
			97.00		1.3575E+00		2.8995E+00
			98.00		1.3539E+00		2.8983E+00
			99.00		1.3498E+00		2.8983E+00
			100.00		1.3444E+00		2.8986E+00
			101.00		1.3404E+00		2.8983E+00
			102.00		1.3316E+00		2.9040E+00
			103.00		1.3237E+00		2.9055E+00
			104.00		1.3194E+00		2.9013E+00
			105.00		1.3134E+00		2.9031E+00
			106.00		1.3060E+00		2.9127E+00
			107.00		1.3066E+00		2.8953E+00
			108.00		1.2955E+00		2.9040E+00
			109.00		1.2885E+00		2.9103E+00
			110.00		1.2880E+00		2.8929E+00
			111.00		1.2849E+00		2.8929E+00
			112.00		1.2806E+00		2.8932E+00
			113.00		1.2746E+00		2.8974E+00
			114.00		1.2670E+00		2.9052E+00
			115.00		1.2641E+00		2.8977E+00
			116.00		1.2589E+00		2.8953E+00
			117.00		1.2554E+00		2.8962E+00
			118.00		1.2497E+00		2.8998E+00
			119.00		1.2420E+00		2.8962E+00
			120.00		1.2400E+00		2.8911E+00
			121.00		1.2347E+00		2.8914E+00
			122.00		1.2230E+00		2.9019E+00
			123.00		1.2206E+00		2.9001E+00
			124.00		1.2173E+00		2.8908E+00
			125.00		1.2099E+00		2.8962E+00
			126.00		1.2041E+00		2.9001E+00
			127.00		1.1979E+00		2.9001E+00
			128.00		1.1941E+00		2.8992E+00
			129.00		1.1892E+00		2.9037E+00
			130.00		1.1865E+00		2.8950E+00
			131.00		1.1797E+00		2.9016E+00
			132.00		1.1787E+00		2.8938E+00
			133.00		1.1748E+00		2.8908E+00
			134.00		1.1670E+00		2.8947E+00
			135.00		1.1597E+00		2.8947E+00
			136.00		1.1526E+00		2.8944E+00
			137.00		1.1505E+00		2.8971E+00
			138.00		1.1467E+00		2.9013E+00
			139.00		1.1432E+00		2.8998E+00
			140.00		1.1411E+00		2.8920E+00
			141.00		1.1318E+00		2.8971E+00
			142.00		1.1289E+00		2.8965E+00
			143.00		1.1231E+00		2.9010E+00
			144.00		1.1186E+00		2.9205E+00
			145.00		1.1119E+00		2.9058E+00
			146.00		1.1115E+00		2.8908E+00
			147.00		1.1060E+00		2.8860E+00
			148.00		1.1003E+00		2.8902E+00
			149.00		1.0961E+00		2.8902E+00
			150.00		1.0888E+00		2.9013E+00
			151.00		1.0866E+00		2.8989E+00
			152.00		1.0797E+00		2.9007E+00
			153.00		1.0802E+00		2.8938E+00
			154.00		1.0770E+00		2.8914E+00
			155.00		1.0682E+00		2.8983E+00
			156.00		1.0626E+00		2.9022E+00
			157.00		1.0605E+00		2.8938E+00
			158.00		1.0573E+00		2.8884E+00
			159.00		1.0481E+00		2.8968E+00
			160.00		1.0454E+00		2.8956E+00
			161.00		1.0419E+00		2.8938E+00
			162.00		1.0349E+00		2.8986E+00
			163.00		1.0354E+00		2.8926E+00
			164.00		1.0304E+00		2.8944E+00
			165.00		1.0232E+00		2.8971E+00
			166.00		1.0168E+00		2.8998E+00
			167.00		1.0161E+00		2.8896E+00
			168.00		1.0096E+00		2.8980E+00
			169.00		1.0063E+00		2.8950E+00
			170.00		1.0022E+00		2.8932E+00
			171.00		1.0009E+00		2.8926E+00
			172.00		992.24E-03		2.9007E+00
			173.00		986.78E-03		2.9037E+00
			174.00		982.31E-03		2.9004E+00
			175.00		982.75E-03		2.8872E+00
			176.00		973.21E-03		2.8998E+00
			177.00		972.49E-03		2.9007E+00
			178.00		967.85E-03		2.9016E+00
			179.00		963.59E-03		2.9085E+00
			180.00		963.90E-03		2.8917E+00
			181.00		956.57E-03		2.8944E+00
			182.00		951.53E-03		2.8968E+00
			183.00		948.37E-03		2.8992E+00
			184.00		948.31E-03		2.8788E+00
			185.00		941.19E-03		2.8977E+00
			186.00		936.63E-03		2.9022E+00
			187.00		931.97E-03		2.9016E+00
			188.00		927.31E-03		2.9013E+00
			189.00		926.98E-03		2.9007E+00
			190.00		922.16E-03		2.8944E+00
			191.00		915.67E-03		2.9028E+00
			192.00		914.00E-03		2.8989E+00
			193.00		911.51E-03		2.8953E+00
			194.00		909.04E-03		2.8959E+00
			195.00		903.37E-03		2.8965E+00
			196.00		899.75E-03		2.8938E+00
			197.00		894.98E-03		2.8965E+00
			198.00		889.15E-03		2.9013E+00
			199.00		884.38E-03		2.8983E+00
			200.00		882.19E-03		2.8953E+00
			201.00		879.55E-03		2.8941E+00
			202.00		875.67E-03		2.8980E+00
			203.00		871.18E-03		2.8947E+00
			204.00		866.41E-03		2.9037E+00
			205.00		864.71E-03		2.9004E+00
			206.00		861.91E-03		2.8938E+00
			207.00		859.74E-03		2.8896E+00
			208.00		857.23E-03		2.8851E+00
			209.00		849.66E-03		2.8995E+00
			210.00		846.29E-03		2.8983E+00
			211.00		841.82E-03		2.8980E+00
			212.00		839.69E-03		2.8968E+00
			213.00		835.95E-03		2.9040E+00
			214.00		833.20E-03		2.9046E+00
			215.00		831.21E-03		2.9007E+00
			216.00		822.14E-03		2.9079E+00
			217.00		822.68E-03		2.9016E+00
			218.00		820.07E-03		2.8911E+00
			219.00		816.05E-03		2.8980E+00
			220.00		813.97E-03		2.8947E+00
			221.00		811.40E-03		2.8902E+00
			222.00		806.57E-03		2.8956E+00
			223.00		800.81E-03		2.8962E+00
			224.00		800.23E-03		2.8923E+00
			225.00		795.80E-03		2.8986E+00
			226.00		793.97E-03		2.8962E+00
			227.00		791.13E-03		2.8941E+00
			228.00		786.15E-03		2.8941E+00
			229.00		780.51E-03		2.9004E+00
			230.00		782.65E-03		2.8917E+00
			231.00		774.68E-03		2.9025E+00
			232.00		773.46E-03		2.9001E+00
			233.00		770.53E-03		2.9076E+00
			234.00		764.03E-03		2.9139E+00
			235.00		766.28E-03		2.8983E+00
			236.00		762.41E-03		2.8941E+00
			237.00		759.04E-03		2.8959E+00
			238.00		755.76E-03		2.8914E+00
			239.00		754.38E-03		2.8800E+00
			240.00		749.74E-03		2.8830E+00
			241.00		745.80E-03		2.8914E+00
			242.00		742.10E-03		2.8872E+00
			243.00		737.81E-03		2.8914E+00
			244.00		737.46E-03		2.9070E+00
			245.00		733.79E-03		2.8962E+00
			246.00		731.56E-03		2.8956E+00
			247.00		726.38E-03		2.9022E+00
			248.00		723.18E-03		2.9001E+00
			249.00		718.42E-03		2.9022E+00
			250.00		717.01E-03		2.8983E+00
			251.00		714.98E-03		2.8998E+00
			252.00		711.86E-03		2.9007E+00
			253.00		707.84E-03		2.8977E+00
			254.00		705.22E-03		2.8995E+00
			255.00		701.61E-03		2.8935E+00
			256.00		698.92E-03		2.8956E+00
			257.00		698.75E-03		2.8890E+00
			258.00		693.50E-03		2.8992E+00
			259.00		688.40E-03		2.9028E+00
			260.00		687.86E-03		2.8929E+00
			261.00		685.25E-03		2.8899E+00
			262.00		682.44E-03		2.8965E+00
			263.00		680.96E-03		2.8971E+00
			264.00		677.71E-03		2.8968E+00
			265.00		675.13E-03		2.8941E+00
			266.00		666.94E-03		2.9022E+00
			267.00		665.46E-03		2.8938E+00
			268.00		662.53E-03		2.9043E+00
			269.00		664.15E-03		2.8977E+00
			270.00		661.38E-03		2.8935E+00
			271.00		660.66E-03		2.8953E+00
			272.00		655.70E-03		2.8998E+00
			273.00		654.43E-03		2.8926E+00
			274.00		649.07E-03		2.8920E+00
			275.00		646.53E-03		2.8908E+00
			276.00		644.56E-03		2.8866E+00
			277.00		640.75E-03		2.8944E+00
			278.00		636.76E-03		2.8923E+00
			279.00		635.45E-03		2.8926E+00
			280.00		633.81E-03		2.8911E+00
			281.00		627.14E-03		2.9070E+00
			282.00		629.01E-03		2.8974E+00
			283.00		623.98E-03		2.8977E+00
			284.00		620.85E-03		2.8920E+00
			285.00		617.36E-03		2.9040E+00
			286.00		615.72E-03		2.8971E+00
			287.00		613.24E-03		2.8956E+00
			288.00		611.90E-03		2.9049E+00
			289.00		610.33E-03		2.8971E+00
			290.00		609.38E-03		2.8923E+00
			291.00		605.03E-03		2.8992E+00
			292.00		600.74E-03		2.9094E+00
			293.00		599.03E-03		2.9067E+00
			294.00		596.88E-03		2.9061E+00
			295.00		594.78E-03		2.8977E+00
			296.00		593.38E-03		2.8914E+00
			297.00		592.71E-03		2.8896E+00
			298.00		590.34E-03		2.8956E+00
			299.00		586.15E-03		2.8989E+00
			300.00		582.55E-03		2.9055E+00
		END_DATA
	END_SCAN  1
END_SCAN_DATA
