BEGIN_SCAN_DATA
	FORMAT=CC-Export V1.9                  
	FILE_CREATION_DATE=27-Sep-2022 15:59:03
	LAST_MODIFIED=27-Sep-2022 15:59:03
	BEGIN_SCAN  1
		TASK_NAME=tba PDD Profiles
		PROGRAM=WaterTankScans
		MEAS_DATE=27-Sep-2022 15:58:33
		LINAC=L3 ELEKTA SYNERGY
		MODALITY=X
		ISOCENTER=1000.00
		INPLANE_AXIS=Inplane
		CROSSPLANE_AXIS=Crossplane
		DEPTH_AXIS=Depth
		INPLANE_AXIS_DIR=GUN_TARGET
		CROSSPLANE_AXIS_DIR=LEFT_RIGHT
		DEPTH_AXIS_DIR=UP_DOWN
		ENERGY=18.00
		NOMINAL_DMAX=30.00
		SSD=1000.00
		BLOCK=0
		WEDGE_ANGLE=0.00
		FIELD_INPLANE=100.00
		FIELD_CROSSPLANE=100.00
		FIELD_TYPE=RECTANGULAR
		GANTRY=0.00
		GANTRY_UPRIGHT_POSITION=0
		GANTRY_ROTATION=CW
		COLL_ANGLE=0.00
		COLL_OFFSET_INPLANE=0.00
		COLL_OFFSET_CROSSPLANE=0.00
		SCAN_DEVICE=BeamScan
		SCAN_DEVICE_SETUP=BARA_LEFT_RIGHT
		ELECTROMETER=BeamScan
		RANGE_FIELD=LOW
		RANGE_REFERENCE=LOW
		DETECTOR=THIMBLE_CHAMBER
		DETECTOR_SUBCODE=SEMIFLEX
		DETECTOR_RADIUS=2.40
		DETECTOR_NAME=PTW Semiflex 3D (Field)
		DETECTOR_SN=141799
		DETECTOR_CALIBRATION=500000000.00
		DETECTOR_IS_CALIBRATED=1
		DETECTOR_REFERENCE=THIMBLE_CHAMBER
		DETECTOR_REFERENCE_SUBCODE=SEMIFLEX
		DETECTOR_REFERENCE_RADIUS=2.40
		DETECTOR_REFERENCE_NAME=PTW Semiflex 3D (REF)
		DETECTOR_REFERENCE_SN=141800
		DETECTOR_REFERENCE_IS_CALIBRATED=0
		DETECTOR_REFERENCE_CALIBRATION=500000000.00
		DETECTOR_HV=400.0
		DETECTOR_REFERENCE_HV=400.0
		DETECTOR_ORIENTATION=HORIZONTAL
		FILTER=FF
		SCAN_SPEED_PROFILE=0.00
		SCAN_PROF_SPEED_DEP=DEPTH
		SCAN_SPEED_PDD=20.00
		SCAN_PDD_SPEED_DEP=ENERGY
		REF_FIELD_DEPTH=0.00
		REF_FIELD_DEFINED=WATER_SURFACE
		REF_FIELD_INPLANE=100.00
		REF_FIELD_CROSSPLANE=100.00
		REF_SCAN_POSITIONS=0.00;1.00;2.00;3.00;4.00;5.00;6.00;7.00;8.00;9.00;10.00;11.00;12.00;13.00;14.00;15.00;16.00;17.00;18.00;19.00;20.00;21.00;22.00;23.00;24.00;25.00;26.00;27.00;28.00;29.00;30.00;31.00;32.00;33.00;34.00;35.00;36.00;37.00;38.00;39.00;40.00;41.00;42.00;43.00;44.00;45.00;46.00;47.00;48.00;49.00;50.00;51.00;52.00;53.00;54.00;55.00;56.00;57.00;58.00;59.00;60.00;61.00;62.00;63.00;64.00;65.00;66.00;67.00;68.00;69.00;70.00;71.00;72.00;73.00;74.00;75.00;76.00;77.00;78.00;79.00;80.00;81.00;82.00;83.00;84.00;85.00;86.00;87.00;88.00;89.00;90.00;91.00;92.00;93.00;94.00;95.00;96.00;97.00;98.00;99.00;100.00;101.00;102.00;103.00;104.00;105.00;106.00;107.00;108.00;109.00;110.00;111.00;112.00;113.00;114.00;115.00;116.00;117.00;118.00;119.00;120.00;121.00;122.00;123.00;124.00;125.00;126.00;127.00;128.00;129.00;130.00;131.00;132.00;133.00;134.00;135.00;136.00;137.00;138.00;139.00;140.00;141.00;142.00;143.00;144.00;145.00;146.00;147.00;148.00;149.00;150.00;151.00;152.00;153.00;154.00;155.00;156.00;157.00;158.00;159.00;160.00;161.00;162.00;163.00;164.00;165.00;166.00;167.00;168.00;169.00;170.00;171.00;172.00;173.00;174.00;175.00;176.00;177.00;178.00;179.00;180.00;181.00;182.00;183.00;184.00;185.00;186.00;187.00;188.00;189.00;190.00;191.00;192.00;193.00;194.00;195.00;196.00;197.00;198.00;199.00;200.00;201.00;202.00;203.00;204.00;205.00;206.00;207.00;208.00;209.00;210.00;211.00;212.00;213.00;214.00;215.00;216.00;217.00;218.00;219.00;220.00;221.00;222.00;223.00;224.00;225.00;226.00;227.00;228.00;229.00;230.00;231.00;232.00;233.00;234.00;235.00;236.00;237.00;238.00;239.00;240.00;241.00;242.00;243.00;244.00;245.00;246.00;247.00;248.00;249.00;250.00;251.00;252.00;253.00;254.00;255.00;256.00;257.00;258.00;259.00;260.00;261.00;262.00;263.00;264.00;265.00;266.00;267.00;268.00;269.00;270.00;271.00;272.00;273.00;274.00;275.00;276.00;277.00;278.00;279.00;280.00;281.00;282.00;283.00;284.00;285.00;286.00;287.00;288.00;289.00;290.00;291.00;292.00;293.00;294.00;295.00;296.00;297.00;298.00;299.00;300.00;
		SCAN_CURVETYPE=PDD
		SCAN_OFFAXIS_INPLANE=0.00
		SCAN_OFFAXIS_CROSSPLANE=0.00
		SCAN_ANGLE=0.00
		SCAN_DIAGONAL=NOT_DIAGONAL
		SCAN_DIRECTION=NEGATIVE
		MEAS_MEDIUM=WATER
		MEAS_PRESET=MEAS_CONTINUOUS_REFERENCE_SCAN
		MEAS_TIME=0.050
		MEAS_UNIT=A.U.
		PRESSURE=1013.25
		TEMPERATURE=20.00
		NORM_TEMPERATURE=20.00
		CORRECTION_FACTOR=1.0000
		EXPECTED_MAX_DOSE_RATE=3.00
		BEGIN_DATA
			0.00		555.25E-03		2.8452E+00
			1.00		598.20E-03		2.8380E+00
			2.00		681.93E-03		2.8296E+00
			3.00		803.17E-03		2.8365E+00
			4.00		921.20E-03		2.8362E+00
			5.00		1.0255E+00		2.8347E+00
			6.00		1.1182E+00		2.8386E+00
			7.00		1.2016E+00		2.8413E+00
			8.00		1.2702E+00		2.8437E+00
			9.00		1.3278E+00		2.8422E+00
			10.00		1.3792E+00		2.8452E+00
			11.00		1.4235E+00		2.8494E+00
			12.00		1.4645E+00		2.8413E+00
			13.00		1.5007E+00		2.8386E+00
			14.00		1.5357E+00		2.8365E+00
			15.00		1.5617E+00		2.8353E+00
			16.00		1.5855E+00		2.8326E+00
			17.00		1.6077E+00		2.8308E+00
			18.00		1.6262E+00		2.8299E+00
			19.00		1.6358E+00		2.8353E+00
			20.00		1.6571E+00		2.8332E+00
			21.00		1.6637E+00		2.8347E+00
			22.00		1.6767E+00		2.8287E+00
			23.00		1.6828E+00		2.8275E+00
			24.00		1.6930E+00		2.8281E+00
			25.00		1.6956E+00		2.8362E+00
			26.00		1.6986E+00		2.8329E+00
			27.00		1.7054E+00		2.8269E+00
			28.00		1.7059E+00		2.8296E+00
			29.00		1.7030E+00		2.8326E+00
			30.00		1.7057E+00		2.8404E+00
			31.00		1.7111E+00		2.8332E+00
			32.00		1.7092E+00		2.8311E+00
			33.00		1.7046E+00		2.8335E+00
			34.00		1.7061E+00		2.8293E+00
			35.00		1.7023E+00		2.8356E+00
			36.00		1.6954E+00		2.8401E+00
			37.00		1.6903E+00		2.8398E+00
			38.00		1.6912E+00		2.8347E+00
			39.00		1.6899E+00		2.8245E+00
			40.00		1.6827E+00		2.8365E+00
			41.00		1.6778E+00		2.8287E+00
			42.00		1.6707E+00		2.8299E+00
			43.00		1.6660E+00		2.8308E+00
			44.00		1.6660E+00		2.8290E+00
			45.00		1.6584E+00		2.8329E+00
			46.00		1.6555E+00		2.8323E+00
			47.00		1.6511E+00		2.8308E+00
			48.00		1.6430E+00		2.8284E+00
			49.00		1.6361E+00		2.8329E+00
			50.00		1.6309E+00		2.8272E+00
			51.00		1.6285E+00		2.8332E+00
			52.00		1.6185E+00		2.8359E+00
			53.00		1.6083E+00		2.8371E+00
			54.00		1.6072E+00		2.8353E+00
			55.00		1.6009E+00		2.8371E+00
			56.00		1.5969E+00		2.8311E+00
			57.00		1.5936E+00		2.8275E+00
			58.00		1.5854E+00		2.8365E+00
			59.00		1.5843E+00		2.8272E+00
			60.00		1.5693E+00		2.8542E+00
			61.00		1.5611E+00		2.8461E+00
			62.00		1.5567E+00		2.8407E+00
			63.00		1.5485E+00		2.8401E+00
			64.00		1.5419E+00		2.8368E+00
			65.00		1.5412E+00		2.8419E+00
			66.00		1.5359E+00		2.8323E+00
			67.00		1.5283E+00		2.8266E+00
			68.00		1.5178E+00		2.8305E+00
			69.00		1.5126E+00		2.8302E+00
			70.00		1.5069E+00		2.8329E+00
			71.00		1.5051E+00		2.8224E+00
			72.00		1.4950E+00		2.8275E+00
			73.00		1.4928E+00		2.8236E+00
			74.00		1.4821E+00		2.8338E+00
			75.00		1.4780E+00		2.8335E+00
			76.00		1.4752E+00		2.8287E+00
			77.00		1.4638E+00		2.8344E+00
			78.00		1.4606E+00		2.8386E+00
			79.00		1.4547E+00		2.8398E+00
			80.00		1.4449E+00		2.8611E+00
			81.00		1.4411E+00		2.8479E+00
			82.00		1.4451E+00		2.8338E+00
			83.00		1.4346E+00		2.8398E+00
			84.00		1.4268E+00		2.8386E+00
			85.00		1.4197E+00		2.8401E+00
			86.00		1.4153E+00		2.8341E+00
			87.00		1.4148E+00		2.8308E+00
			88.00		1.4060E+00		2.8293E+00
			89.00		1.3986E+00		2.8314E+00
			90.00		1.3967E+00		2.8266E+00
			91.00		1.3892E+00		2.8332E+00
			92.00		1.3802E+00		2.8365E+00
			93.00		1.3734E+00		2.8332E+00
			94.00		1.3701E+00		2.8290E+00
			95.00		1.3624E+00		2.8317E+00
			96.00		1.3590E+00		2.8344E+00
			97.00		1.3546E+00		2.8326E+00
			98.00		1.3479E+00		2.8356E+00
			99.00		1.3411E+00		2.8410E+00
			100.00		1.3360E+00		2.8518E+00
			101.00		1.3316E+00		2.8365E+00
			102.00		1.3270E+00		2.8326E+00
			103.00		1.3197E+00		2.8371E+00
			104.00		1.3142E+00		2.8398E+00
			105.00		1.3117E+00		2.8383E+00
			106.00		1.3080E+00		2.8326E+00
			107.00		1.3007E+00		2.8347E+00
			108.00		1.2944E+00		2.8392E+00
			109.00		1.2865E+00		2.8449E+00
			110.00		1.2803E+00		2.8446E+00
			111.00		1.2774E+00		2.8323E+00
			112.00		1.2704E+00		2.8314E+00
			113.00		1.2676E+00		2.8305E+00
			114.00		1.2632E+00		2.8308E+00
			115.00		1.2625E+00		2.8302E+00
			116.00		1.2565E+00		2.8341E+00
			117.00		1.2537E+00		2.8308E+00
			118.00		1.2417E+00		2.8365E+00
			119.00		1.2374E+00		2.8293E+00
			120.00		1.2318E+00		2.8494E+00
			121.00		1.2264E+00		2.8401E+00
			122.00		1.2238E+00		2.8362E+00
			123.00		1.2198E+00		2.8308E+00
			124.00		1.2120E+00		2.8317E+00
			125.00		1.2054E+00		2.8347E+00
			126.00		1.2000E+00		2.8374E+00
			127.00		1.1964E+00		2.8410E+00
			128.00		1.1936E+00		2.8326E+00
			129.00		1.1867E+00		2.8365E+00
			130.00		1.1849E+00		2.8332E+00
			131.00		1.1800E+00		2.8296E+00
			132.00		1.1704E+00		2.8374E+00
			133.00		1.1656E+00		2.8362E+00
			134.00		1.1610E+00		2.8371E+00
			135.00		1.1569E+00		2.8317E+00
			136.00		1.1540E+00		2.8335E+00
			137.00		1.1498E+00		2.8335E+00
			138.00		1.1421E+00		2.8368E+00
			139.00		1.1388E+00		2.8371E+00
			140.00		1.1329E+00		2.8440E+00
			141.00		1.1294E+00		2.8290E+00
			142.00		1.1212E+00		2.8389E+00
			143.00		1.1204E+00		2.8356E+00
			144.00		1.1159E+00		2.8362E+00
			145.00		1.1085E+00		2.8443E+00
			146.00		1.1069E+00		2.8431E+00
			147.00		1.1036E+00		2.8353E+00
			148.00		1.0964E+00		2.8347E+00
			149.00		1.0916E+00		2.8389E+00
			150.00		1.0877E+00		2.8326E+00
			151.00		1.0804E+00		2.8434E+00
			152.00		1.0772E+00		2.8350E+00
			153.00		1.0749E+00		2.8272E+00
			154.00		1.0694E+00		2.8305E+00
			155.00		1.0656E+00		2.8323E+00
			156.00		1.0601E+00		2.8356E+00
			157.00		1.0593E+00		2.8296E+00
			158.00		1.0552E+00		2.8308E+00
			159.00		1.0469E+00		2.8359E+00
			160.00		1.0447E+00		2.8419E+00
			161.00		1.0411E+00		2.8371E+00
			162.00		1.0375E+00		2.8311E+00
			163.00		1.0293E+00		2.8416E+00
			164.00		1.0274E+00		2.8296E+00
			165.00		1.0225E+00		2.8329E+00
			166.00		1.0186E+00		2.8359E+00
			167.00		1.0152E+00		2.8284E+00
			168.00		1.0128E+00		2.8266E+00
			169.00		1.0056E+00		2.8311E+00
			170.00		1.0033E+00		2.8260E+00
			171.00		995.44E-03		2.8287E+00
			172.00		993.22E-03		2.8299E+00
			173.00		988.99E-03		2.8338E+00
			174.00		986.32E-03		2.8284E+00
			175.00		981.44E-03		2.8284E+00
			176.00		973.83E-03		2.8317E+00
			177.00		969.70E-03		2.8320E+00
			178.00		966.31E-03		2.8404E+00
			179.00		963.92E-03		2.8356E+00
			180.00		960.82E-03		2.8410E+00
			181.00		954.82E-03		2.8353E+00
			182.00		952.32E-03		2.8314E+00
			183.00		947.49E-03		2.8335E+00
			184.00		942.20E-03		2.8389E+00
			185.00		938.89E-03		2.8377E+00
			186.00		938.12E-03		2.8266E+00
			187.00		932.59E-03		2.8350E+00
			188.00		930.05E-03		2.8347E+00
			189.00		926.75E-03		2.8302E+00
			190.00		922.20E-03		2.8302E+00
			191.00		915.50E-03		2.8368E+00
			192.00		910.84E-03		2.8332E+00
			193.00		908.63E-03		2.8335E+00
			194.00		904.83E-03		2.8371E+00
			195.00		900.85E-03		2.8380E+00
			196.00		897.03E-03		2.8347E+00
			197.00		892.76E-03		2.8365E+00
			198.00		890.19E-03		2.8386E+00
			199.00		888.30E-03		2.8362E+00
			200.00		886.71E-03		2.8335E+00
			201.00		880.16E-03		2.8287E+00
			202.00		876.18E-03		2.8275E+00
			203.00		872.87E-03		2.8293E+00
			204.00		868.86E-03		2.8275E+00
			205.00		864.84E-03		2.8278E+00
			206.00		860.99E-03		2.8314E+00
			207.00		855.83E-03		2.8362E+00
			208.00		852.66E-03		2.8383E+00
			209.00		851.80E-03		2.8299E+00
			210.00		846.55E-03		2.8329E+00
			211.00		841.36E-03		2.8404E+00
			212.00		838.38E-03		2.8326E+00
			213.00		834.21E-03		2.8392E+00
			214.00		831.89E-03		2.8374E+00
			215.00		829.05E-03		2.8377E+00
			216.00		828.64E-03		2.8308E+00
			217.00		822.78E-03		2.8320E+00
			218.00		817.93E-03		2.8308E+00
			219.00		813.90E-03		2.8323E+00
			220.00		810.96E-03		2.8359E+00
			221.00		809.09E-03		2.8317E+00
			222.00		805.29E-03		2.8335E+00
			223.00		802.46E-03		2.8308E+00
			224.00		801.66E-03		2.8224E+00
			225.00		796.88E-03		2.8269E+00
			226.00		793.48E-03		2.8326E+00
			227.00		788.61E-03		2.8341E+00
			228.00		786.61E-03		2.8329E+00
			229.00		784.89E-03		2.8269E+00
			230.00		780.70E-03		2.8317E+00
			231.00		777.53E-03		2.8278E+00
			232.00		776.64E-03		2.8233E+00
			233.00		770.22E-03		2.8332E+00
			234.00		768.57E-03		2.8194E+00
			235.00		764.82E-03		2.8242E+00
			236.00		760.19E-03		2.8272E+00
			237.00		756.84E-03		2.8302E+00
			238.00		753.84E-03		2.8347E+00
			239.00		751.40E-03		2.8359E+00
			240.00		748.92E-03		2.8389E+00
			241.00		743.75E-03		2.8425E+00
			242.00		739.34E-03		2.8416E+00
			243.00		737.48E-03		2.8398E+00
			244.00		736.62E-03		2.8362E+00
			245.00		735.10E-03		2.8335E+00
			246.00		731.60E-03		2.8323E+00
			247.00		725.65E-03		2.8365E+00
			248.00		723.42E-03		2.8332E+00
			249.00		721.94E-03		2.8332E+00
			250.00		717.75E-03		2.8326E+00
			251.00		711.46E-03		2.8374E+00
			252.00		709.77E-03		2.8395E+00
			253.00		709.49E-03		2.8347E+00
			254.00		708.18E-03		2.8302E+00
			255.00		702.97E-03		2.8341E+00
			256.00		698.39E-03		2.8338E+00
			257.00		696.84E-03		2.8302E+00
			258.00		694.86E-03		2.8266E+00
			259.00		694.37E-03		2.8230E+00
			260.00		692.93E-03		2.8176E+00
			261.00		687.55E-03		2.8257E+00
			262.00		682.08E-03		2.8356E+00
			263.00		678.95E-03		2.8341E+00
			264.00		675.38E-03		2.8344E+00
			265.00		673.24E-03		2.8314E+00
			266.00		673.45E-03		2.8314E+00
			267.00		670.44E-03		2.8329E+00
			268.00		665.33E-03		2.8353E+00
			269.00		665.43E-03		2.8326E+00
			270.00		661.66E-03		2.8338E+00
			271.00		657.28E-03		2.8353E+00
			272.00		655.38E-03		2.8362E+00
			273.00		651.47E-03		2.8362E+00
			274.00		648.70E-03		2.8326E+00
			275.00		646.22E-03		2.8323E+00
			276.00		643.10E-03		2.8428E+00
			277.00		646.35E-03		2.8350E+00
			278.00		641.36E-03		2.8332E+00
			279.00		638.39E-03		2.8332E+00
			280.00		633.91E-03		2.8362E+00
			281.00		631.39E-03		2.8404E+00
			282.00		629.64E-03		2.8383E+00
			283.00		629.67E-03		2.8272E+00
			284.00		625.08E-03		2.8302E+00
			285.00		620.11E-03		2.8374E+00
			286.00		619.45E-03		2.8254E+00
			287.00		615.65E-03		2.8287E+00
			288.00		614.62E-03		2.8320E+00
			289.00		612.38E-03		2.8350E+00
			290.00		609.09E-03		2.8380E+00
			291.00		604.94E-03		2.8431E+00
			292.00		604.77E-03		2.8404E+00
			293.00		603.36E-03		2.8431E+00
			294.00		598.21E-03		2.8455E+00
			295.00		597.66E-03		2.8416E+00
			296.00		595.14E-03		2.8395E+00
			297.00		592.24E-03		2.8377E+00
			298.00		590.19E-03		2.8308E+00
			299.00		588.25E-03		2.8335E+00
			300.00		585.57E-03		2.8224E+00
		END_DATA
	END_SCAN  1
END_SCAN_DATA
