BEGIN_SCAN_DATA
	FORMAT=CC-Export V1.9                  
	FILE_CREATION_DATE=03-Apr-2023 14:08:30
	LAST_MODIFIED=03-Apr-2023 14:08:30
	BEGIN_SCAN  1
		TASK_NAME=tba PDD Profiles
		PROGRAM=WaterTankScans
		MEAS_DATE=03-Apr-2023 14:07:05
		LINAC=L1 ELEKTA VERSA
		MODALITY=X
		ISOCENTER=1000.00
		INPLANE_AXIS=Inplane
		CROSSPLANE_AXIS=Crossplane
		DEPTH_AXIS=Depth
		INPLANE_AXIS_DIR=GUN_TARGET
		CROSSPLANE_AXIS_DIR=LEFT_RIGHT
		DEPTH_AXIS_DIR=UP_DOWN
		ENERGY=18.00
		NOMINAL_DMAX=30.00
		SSD=1000.00
		WEDGE_ANGLE=0.00
		FIELD_INPLANE=100.00
		FIELD_CROSSPLANE=100.00
		FIELD_TYPE=RECTANGULAR
		GANTRY=0.00
		GANTRY_UPRIGHT_POSITION=0
		GANTRY_ROTATION=CW
		COLL_ANGLE=0.00
		COLL_OFFSET_INPLANE=0.00
		COLL_OFFSET_CROSSPLANE=0.00
		SCAN_DEVICE=BeamScan
		SCAN_DEVICE_SETUP=BARA_LEFT_RIGHT
		ELECTROMETER=BeamScan
		RANGE_FIELD=LOW
		RANGE_REFERENCE=LOW
		DETECTOR=THIMBLE_CHAMBER
		DETECTOR_SUBCODE=SEMIFLEX
		DETECTOR_RADIUS=2.40
		DETECTOR_NAME=PTW Semiflex 3D (Field)
		DETECTOR_SN=141799
		DETECTOR_CALIBRATION=500000000.00
		DETECTOR_IS_CALIBRATED=1
		DETECTOR_REFERENCE=THIMBLE_CHAMBER
		DETECTOR_REFERENCE_SUBCODE=SEMIFLEX
		DETECTOR_REFERENCE_RADIUS=2.40
		DETECTOR_REFERENCE_NAME=PTW Semiflex 3D (REF)
		DETECTOR_REFERENCE_SN=141800
		DETECTOR_REFERENCE_IS_CALIBRATED=0
		DETECTOR_REFERENCE_CALIBRATION=500000000.00
		DETECTOR_HV=400.0
		DETECTOR_REFERENCE_HV=400.0
		DETECTOR_ORIENTATION=HORIZONTAL
		FILTER=FF
		SCAN_SPEED_PROFILE=0.00
		SCAN_PROF_SPEED_DEP=DEPTH
		SCAN_SPEED_PDD=20.00
		SCAN_PDD_SPEED_DEP=ENERGY
		REF_FIELD_DEPTH=0.00
		REF_FIELD_DEFINED=WATER_SURFACE
		REF_FIELD_INPLANE=100.00
		REF_FIELD_CROSSPLANE=100.00
		REF_SCAN_POSITIONS=0.00;1.00;2.00;3.00;4.00;5.00;6.00;7.00;8.00;9.00;10.00;11.00;12.00;13.00;14.00;15.00;16.00;17.00;18.00;19.00;20.00;21.00;22.00;23.00;24.00;25.00;26.00;27.00;28.00;29.00;30.00;31.00;32.00;33.00;34.00;35.00;36.00;37.00;38.00;39.00;40.00;41.00;42.00;43.00;44.00;45.00;46.00;47.00;48.00;49.00;50.00;51.00;52.00;53.00;54.00;55.00;56.00;57.00;58.00;59.00;60.00;61.00;62.00;63.00;64.00;65.00;66.00;67.00;68.00;69.00;70.00;71.00;72.00;73.00;74.00;75.00;76.00;77.00;78.00;79.00;80.00;81.00;82.00;83.00;84.00;85.00;86.00;87.00;88.00;89.00;90.00;91.00;92.00;93.00;94.00;95.00;96.00;97.00;98.00;99.00;100.00;101.00;102.00;103.00;104.00;105.00;106.00;107.00;108.00;109.00;110.00;111.00;112.00;113.00;114.00;115.00;116.00;117.00;118.00;119.00;120.00;121.00;122.00;123.00;124.00;125.00;126.00;127.00;128.00;129.00;130.00;131.00;132.00;133.00;134.00;135.00;136.00;137.00;138.00;139.00;140.00;141.00;142.00;143.00;144.00;145.00;146.00;147.00;148.00;149.00;150.00;151.00;152.00;153.00;154.00;155.00;156.00;157.00;158.00;159.00;160.00;161.00;162.00;163.00;164.00;165.00;166.00;167.00;168.00;169.00;170.00;171.00;172.00;173.00;174.00;175.00;176.00;177.00;178.00;179.00;180.00;181.00;182.00;183.00;184.00;185.00;186.00;187.00;188.00;189.00;190.00;191.00;192.00;193.00;194.00;195.00;196.00;197.00;198.00;199.00;200.00;201.00;202.00;203.00;204.00;205.00;206.00;207.00;208.00;209.00;210.00;211.00;212.00;213.00;214.00;215.00;216.00;217.00;218.00;219.00;220.00;221.00;222.00;223.00;224.00;225.00;226.00;227.00;228.00;229.00;230.00;231.00;232.00;233.00;234.00;235.00;236.00;237.00;238.00;239.00;240.00;241.00;242.00;243.00;244.00;245.00;246.00;247.00;248.00;249.00;250.00;251.00;252.00;253.00;254.00;255.00;256.00;257.00;258.00;259.00;260.00;261.00;262.00;263.00;264.00;265.00;266.00;267.00;268.00;269.00;270.00;271.00;272.00;273.00;274.00;275.00;276.00;277.00;278.00;279.00;280.00;281.00;282.00;283.00;284.00;285.00;286.00;287.00;288.00;289.00;290.00;291.00;292.00;293.00;294.00;295.00;296.00;297.00;298.00;299.00;300.00;
		SCAN_CURVETYPE=PDD
		SCAN_OFFAXIS_INPLANE=0.00
		SCAN_OFFAXIS_CROSSPLANE=0.00
		SCAN_ANGLE=0.00
		SCAN_DIAGONAL=NOT_DIAGONAL
		SCAN_DIRECTION=NEGATIVE
		MEAS_MEDIUM=WATER
		MEAS_PRESET=MEAS_CONTINUOUS_REFERENCE_SCAN
		MEAS_TIME=0.050
		MEAS_UNIT=A.U.
		INCLINATION_ANGLE=0.00
		PRESSURE=1013.25
		TEMPERATURE=20.00
		NORM_TEMPERATURE=20.00
		CORRECTION_FACTOR=1.0000
		EXPECTED_MAX_DOSE_RATE=3.00
		BEGIN_DATA
			0.00		455.18E-03		6.9270E+00
			1.00		478.05E-03		6.9030E+00
			2.00		514.37E-03		6.8880E+00
			3.00		585.47E-03		6.8970E+00
			4.00		686.09E-03		6.9000E+00
			5.00		776.14E-03		6.9150E+00
			6.00		858.70E-03		6.9000E+00
			7.00		927.42E-03		6.9030E+00
			8.00		987.39E-03		6.8970E+00
			9.00		1.0374E+00		6.9000E+00
			10.00		1.0857E+00		6.8940E+00
			11.00		1.1294E+00		6.8880E+00
			12.00		1.1682E+00		6.8850E+00
			13.00		1.1983E+00		6.9000E+00
			14.00		1.2235E+00		6.9120E+00
			15.00		1.2487E+00		6.9000E+00
			16.00		1.2668E+00		6.9030E+00
			17.00		1.2804E+00		6.9000E+00
			18.00		1.2960E+00		6.8820E+00
			19.00		1.3072E+00		6.8940E+00
			20.00		1.3191E+00		6.8910E+00
			21.00		1.3317E+00		6.8910E+00
			22.00		1.3410E+00		6.8880E+00
			23.00		1.3493E+00		6.8970E+00
			24.00		1.3562E+00		6.8970E+00
			25.00		1.3619E+00		6.8880E+00
			26.00		1.3652E+00		6.9000E+00
			27.00		1.3658E+00		6.9060E+00
			28.00		1.3644E+00		6.9150E+00
			29.00		1.3668E+00		6.9030E+00
			30.00		1.3683E+00		6.9000E+00
			31.00		1.3695E+00		6.8940E+00
			32.00		1.3664E+00		6.9030E+00
			33.00		1.3687E+00		6.8910E+00
			34.00		1.3665E+00		6.9000E+00
			35.00		1.3646E+00		6.9030E+00
			36.00		1.3636E+00		6.8970E+00
			37.00		1.3622E+00		6.8820E+00
			38.00		1.3584E+00		6.8880E+00
			39.00		1.3529E+00		6.8940E+00
			40.00		1.3492E+00		6.8910E+00
			41.00		1.3435E+00		6.9090E+00
			42.00		1.3407E+00		6.9120E+00
			43.00		1.3426E+00		6.8910E+00
			44.00		1.3332E+00		6.9060E+00
			45.00		1.3286E+00		6.9030E+00
			46.00		1.3271E+00		6.9060E+00
			47.00		1.3217E+00		6.9000E+00
			48.00		1.3151E+00		6.8940E+00
			49.00		1.3121E+00		6.8820E+00
			50.00		1.3095E+00		6.8910E+00
			51.00		1.3042E+00		6.8940E+00
			52.00		1.2972E+00		6.8940E+00
			53.00		1.2950E+00		6.8850E+00
			54.00		1.2888E+00		6.8970E+00
			55.00		1.2836E+00		6.8970E+00
			56.00		1.2770E+00		6.9000E+00
			57.00		1.2753E+00		6.8970E+00
			58.00		1.2722E+00		6.8880E+00
			59.00		1.2641E+00		6.8940E+00
			60.00		1.2614E+00		6.8850E+00
			61.00		1.2570E+00		6.8880E+00
			62.00		1.2522E+00		6.8880E+00
			63.00		1.2431E+00		6.8970E+00
			64.00		1.2397E+00		6.8850E+00
			65.00		1.2353E+00		6.8850E+00
			66.00		1.2311E+00		6.8940E+00
			67.00		1.2255E+00		6.8910E+00
			68.00		1.2211E+00		6.8940E+00
			69.00		1.2170E+00		6.8850E+00
			70.00		1.2097E+00		6.8970E+00
			71.00		1.2035E+00		6.9000E+00
			72.00		1.2019E+00		6.8940E+00
			73.00		1.1959E+00		6.8910E+00
			74.00		1.1926E+00		6.8850E+00
			75.00		1.1883E+00		6.8820E+00
			76.00		1.1834E+00		6.8850E+00
			77.00		1.1796E+00		6.8820E+00
			78.00		1.1719E+00		6.8940E+00
			79.00		1.1666E+00		6.8790E+00
			80.00		1.1635E+00		6.8820E+00
			81.00		1.1594E+00		6.9090E+00
			82.00		1.1557E+00		6.9000E+00
			83.00		1.1494E+00		6.8880E+00
			84.00		1.1425E+00		6.9030E+00
			85.00		1.1360E+00		6.9030E+00
			86.00		1.1312E+00		6.9030E+00
			87.00		1.1283E+00		6.8970E+00
			88.00		1.1232E+00		6.8940E+00
			89.00		1.1196E+00		6.8970E+00
			90.00		1.1170E+00		6.8970E+00
			91.00		1.1124E+00		6.8880E+00
			92.00		1.1098E+00		6.8850E+00
			93.00		1.1046E+00		6.8850E+00
			94.00		1.1016E+00		6.8820E+00
			95.00		1.0977E+00		6.8790E+00
			96.00		1.0915E+00		6.8850E+00
			97.00		1.0853E+00		6.8910E+00
			98.00		1.0820E+00		6.8820E+00
			99.00		1.0796E+00		6.9000E+00
			100.00		1.0753E+00		6.8970E+00
			101.00		1.0679E+00		6.8910E+00
			102.00		1.0653E+00		6.8910E+00
			103.00		1.0587E+00		6.9000E+00
			104.00		1.0539E+00		6.9000E+00
			105.00		1.0492E+00		6.8970E+00
			106.00		1.0458E+00		6.8850E+00
			107.00		1.0431E+00		6.8880E+00
			108.00		1.0410E+00		6.8790E+00
			109.00		1.0349E+00		6.8790E+00
			110.00		1.0301E+00		6.8820E+00
			111.00		1.0239E+00		6.8940E+00
			112.00		1.0191E+00		6.8970E+00
			113.00		1.0179E+00		6.8850E+00
			114.00		1.0113E+00		6.8820E+00
			115.00		1.0074E+00		6.8790E+00
			116.00		1.0061E+00		6.8790E+00
			117.00		1.0017E+00		6.8820E+00
			118.00		994.78E-03		6.8940E+00
			119.00		991.30E-03		6.8970E+00
			120.00		986.95E-03		6.8940E+00
			121.00		984.31E-03		6.8850E+00
			122.00		979.08E-03		6.8820E+00
			123.00		972.61E-03		6.9000E+00
			124.00		969.99E-03		6.8970E+00
			125.00		967.32E-03		6.8850E+00
			126.00		963.87E-03		6.8910E+00
			127.00		959.53E-03		6.8940E+00
			128.00		956.01E-03		6.8880E+00
			129.00		952.98E-03		6.8910E+00
			130.00		947.80E-03		6.8970E+00
			131.00		943.40E-03		6.8910E+00
			132.00		938.59E-03		6.8880E+00
			133.00		935.08E-03		6.8850E+00
			134.00		930.37E-03		6.8940E+00
			135.00		928.85E-03		6.8730E+00
			136.00		924.52E-03		6.8760E+00
			137.00		920.33E-03		6.8910E+00
			138.00		916.85E-03		6.8910E+00
			139.00		912.02E-03		6.8880E+00
			140.00		907.67E-03		6.8880E+00
			141.00		903.87E-03		6.8970E+00
			142.00		899.91E-03		6.8940E+00
			143.00		895.86E-03		6.8850E+00
			144.00		893.34E-03		6.8910E+00
			145.00		890.24E-03		6.8880E+00
			146.00		887.05E-03		6.8790E+00
			147.00		883.56E-03		6.8790E+00
			148.00		879.30E-03		6.8850E+00
			149.00		875.11E-03		6.8940E+00
			150.00		871.08E-03		6.8880E+00
			151.00		867.97E-03		6.8850E+00
			152.00		865.91E-03		6.8910E+00
			153.00		862.75E-03		6.8850E+00
			154.00		857.64E-03		6.8910E+00
			155.00		855.53E-03		6.8940E+00
			156.00		850.24E-03		6.8910E+00
			157.00		846.32E-03		6.8910E+00
			158.00		844.24E-03		6.8760E+00
			159.00		840.75E-03		6.8760E+00
			160.00		836.46E-03		6.8790E+00
			161.00		832.97E-03		6.8790E+00
			162.00		831.95E-03		6.8730E+00
			163.00		827.45E-03		6.8850E+00
			164.00		823.17E-03		6.8880E+00
			165.00		818.82E-03		6.8880E+00
			166.00		815.33E-03		6.8880E+00
			167.00		812.72E-03		6.8880E+00
			168.00		809.86E-03		6.8790E+00
			169.00		808.30E-03		6.8700E+00
			170.00		801.13E-03		6.8790E+00
			171.00		798.52E-03		6.8790E+00
			172.00		795.12E-03		6.8820E+00
			173.00		793.81E-03		6.8820E+00
			174.00		792.14E-03		6.8700E+00
			175.00		787.09E-03		6.8760E+00
			176.00		783.41E-03		6.8700E+00
			177.00		777.97E-03		6.8910E+00
			178.00		774.05E-03		6.8910E+00
			179.00		771.91E-03		6.8790E+00
			180.00		767.32E-03		6.8850E+00
			181.00		766.11E-03		6.8880E+00
			182.00		762.63E-03		6.8880E+00
			183.00		760.78E-03		6.8850E+00
			184.00		756.31E-03		6.8940E+00
			185.00		753.26E-03		6.8940E+00
			186.00		750.22E-03		6.8940E+00
			187.00		747.28E-03		6.8850E+00
			188.00		745.64E-03		6.8760E+00
			189.00		742.70E-03		6.8790E+00
			190.00		737.58E-03		6.8820E+00
			191.00		736.15E-03		6.8790E+00
			192.00		732.55E-03		6.8760E+00
			193.00		729.41E-03		6.8850E+00
			194.00		724.66E-03		6.8970E+00
			195.00		722.25E-03		6.8910E+00
			196.00		721.33E-03		6.8790E+00
			197.00		718.15E-03		6.8760E+00
			198.00		713.35E-03		6.8760E+00
			199.00		712.10E-03		6.8670E+00
			200.00		708.55E-03		6.8760E+00
			201.00		705.57E-03		6.8880E+00
			202.00		702.40E-03		6.8850E+00
			203.00		700.39E-03		6.8790E+00
			204.00		696.30E-03		6.8850E+00
			205.00		694.86E-03		6.8820E+00
			206.00		692.11E-03		6.8790E+00
			207.00		688.02E-03		6.8850E+00
			208.00		684.55E-03		6.8760E+00
			209.00		681.94E-03		6.8760E+00
			210.00		677.84E-03		6.8910E+00
			211.00		675.38E-03		6.8850E+00
			212.00		672.91E-03		6.8880E+00
			213.00		670.15E-03		6.8850E+00
			214.00		667.39E-03		6.8820E+00
			215.00		666.09E-03		6.8820E+00
			216.00		663.76E-03		6.8880E+00
			217.00		660.27E-03		6.8790E+00
			218.00		657.52E-03		6.8850E+00
			219.00		654.51E-03		6.9120E+00
			220.00		652.02E-03		6.8970E+00
			221.00		648.19E-03		6.8730E+00
			222.00		646.60E-03		6.8760E+00
			223.00		643.39E-03		6.8730E+00
			224.00		640.05E-03		6.8760E+00
			225.00		637.87E-03		6.8760E+00
			226.00		635.41E-03		6.8790E+00
			227.00		633.39E-03		6.8820E+00
			228.00		630.18E-03		6.8790E+00
			229.00		627.61E-03		6.8880E+00
			230.00		624.67E-03		6.8820E+00
			231.00		622.87E-03		6.8730E+00
			232.00		621.40E-03		6.8700E+00
			233.00		616.56E-03		6.8850E+00
			234.00		614.91E-03		6.8790E+00
			235.00		611.69E-03		6.8760E+00
			236.00		610.21E-03		6.8730E+00
			237.00		607.67E-03		6.8820E+00
			238.00		604.79E-03		6.8850E+00
			239.00		602.01E-03		6.8820E+00
			240.00		599.22E-03		6.8790E+00
			241.00		597.82E-03		6.8850E+00
			242.00		594.50E-03		6.8730E+00
			243.00		591.29E-03		6.8850E+00
			244.00		590.67E-03		6.8820E+00
			245.00		587.70E-03		6.8760E+00
			246.00		584.82E-03		6.8790E+00
			247.00		582.97E-03		6.8700E+00
			248.00		580.72E-03		6.8760E+00
			249.00		576.91E-03		6.8850E+00
			250.00		574.98E-03		6.8820E+00
			251.00		572.36E-03		6.8820E+00
			252.00		570.31E-03		6.8910E+00
			253.00		568.25E-03		6.8790E+00
			254.00		565.94E-03		6.8700E+00
			255.00		564.38E-03		6.8730E+00
			256.00		561.95E-03		6.8760E+00
			257.00		560.02E-03		6.8730E+00
			258.00		557.40E-03		6.8730E+00
			259.00		554.34E-03		6.8730E+00
			260.00		551.44E-03		6.8820E+00
			261.00		549.06E-03		6.8790E+00
			262.00		547.56E-03		6.8760E+00
			263.00		546.25E-03		6.8760E+00
			264.00		542.72E-03		6.8820E+00
			265.00		540.74E-03		6.8850E+00
			266.00		538.60E-03		6.8790E+00
			267.00		536.42E-03		6.8790E+00
			268.00		535.34E-03		6.8760E+00
			269.00		532.11E-03		6.8670E+00
			270.00		529.28E-03		6.8640E+00
			271.00		527.95E-03		6.8700E+00
			272.00		524.62E-03		6.8850E+00
			273.00		523.56E-03		6.8760E+00
			274.00		520.28E-03		6.8790E+00
			275.00		518.32E-03		6.8760E+00
			276.00		517.26E-03		6.8670E+00
			277.00		514.83E-03		6.8760E+00
			278.00		513.51E-03		6.8820E+00
			279.00		510.68E-03		6.8850E+00
			280.00		508.73E-03		6.8760E+00
			281.00		506.54E-03		6.8760E+00
			282.00		502.83E-03		6.8790E+00
			283.00		500.00E-03		6.8820E+00
			284.00		500.00E-03		6.8820E+00
			285.00		498.91E-03		6.8790E+00
			286.00		496.07E-03		6.8640E+00
			287.00		494.11E-03		6.8730E+00
			288.00		490.83E-03		6.8700E+00
			289.00		488.43E-03		6.8730E+00
			290.00		486.69E-03		6.8730E+00
			291.00		486.24E-03		6.8670E+00
			292.00		485.59E-03		6.8700E+00
			293.00		482.55E-03		6.8760E+00
			294.00		480.58E-03		6.8730E+00
			295.00		479.51E-03		6.8820E+00
			296.00		476.84E-03		6.8640E+00
			297.00		473.18E-03		6.8790E+00
			298.00		471.23E-03		6.8820E+00
			299.00		471.10E-03		6.8520E+00
		END_DATA
	END_SCAN  1
END_SCAN_DATA
