BEGIN_SCAN_DATA
	FORMAT=CC-Export V1.9                  
	FILE_CREATION_DATE=12-Oct-2022 12:00:23
	LAST_MODIFIED=12-Oct-2022 12:00:23
	BEGIN_SCAN  1
		TASK_NAME=tba PDD Profiles
		PROGRAM=WaterTankScans
		MEAS_DATE=12-Oct-2022 11:59:52
		LINAC=L2 ELEKTA VERSA
		MODALITY=X
		ISOCENTER=1000.00
		INPLANE_AXIS=Inplane
		CROSSPLANE_AXIS=Crossplane
		DEPTH_AXIS=Depth
		INPLANE_AXIS_DIR=GUN_TARGET
		CROSSPLANE_AXIS_DIR=LEFT_RIGHT
		DEPTH_AXIS_DIR=UP_DOWN
		ENERGY=18.00
		NOMINAL_DMAX=30.00
		SSD=1000.00
		BLOCK=0
		WEDGE_ANGLE=0.00
		FIELD_INPLANE=100.00
		FIELD_CROSSPLANE=100.00
		FIELD_TYPE=RECTANGULAR
		GANTRY=0.00
		GANTRY_UPRIGHT_POSITION=0
		GANTRY_ROTATION=CW
		COLL_ANGLE=0.00
		COLL_OFFSET_INPLANE=0.00
		COLL_OFFSET_CROSSPLANE=0.00
		SCAN_DEVICE=BeamScan
		SCAN_DEVICE_SETUP=BARA_LEFT_RIGHT
		ELECTROMETER=BeamScan
		RANGE_FIELD=LOW
		RANGE_REFERENCE=LOW
		DETECTOR=THIMBLE_CHAMBER
		DETECTOR_SUBCODE=SEMIFLEX
		DETECTOR_RADIUS=2.40
		DETECTOR_NAME=PTW Semiflex 3D (Field)
		DETECTOR_SN=141799
		DETECTOR_CALIBRATION=500000000.00
		DETECTOR_IS_CALIBRATED=1
		DETECTOR_REFERENCE=THIMBLE_CHAMBER
		DETECTOR_REFERENCE_SUBCODE=SEMIFLEX
		DETECTOR_REFERENCE_RADIUS=2.40
		DETECTOR_REFERENCE_NAME=PTW Semiflex 3D (REF)
		DETECTOR_REFERENCE_SN=141800
		DETECTOR_REFERENCE_IS_CALIBRATED=0
		DETECTOR_REFERENCE_CALIBRATION=500000000.00
		DETECTOR_HV=400.0
		DETECTOR_REFERENCE_HV=400.0
		DETECTOR_ORIENTATION=HORIZONTAL
		FILTER=WFF
		SCAN_SPEED_PROFILE=0.00
		SCAN_PROF_SPEED_DEP=DEPTH
		SCAN_SPEED_PDD=20.00
		SCAN_PDD_SPEED_DEP=ENERGY
		REF_FIELD_DEPTH=0.00
		REF_FIELD_DEFINED=WATER_SURFACE
		REF_FIELD_INPLANE=100.00
		REF_FIELD_CROSSPLANE=100.00
		REF_SCAN_POSITIONS=0.00;1.00;2.00;3.00;4.00;5.00;6.00;7.00;8.00;9.00;10.00;11.00;12.00;13.00;14.00;15.00;16.00;17.00;18.00;19.00;20.00;21.00;22.00;23.00;24.00;25.00;26.00;27.00;28.00;29.00;30.00;31.00;32.00;33.00;34.00;35.00;36.00;37.00;38.00;39.00;40.00;41.00;42.00;43.00;44.00;45.00;46.00;47.00;48.00;49.00;50.00;51.00;52.00;53.00;54.00;55.00;56.00;57.00;58.00;59.00;60.00;61.00;62.00;63.00;64.00;65.00;66.00;67.00;68.00;69.00;70.00;71.00;72.00;73.00;74.00;75.00;76.00;77.00;78.00;79.00;80.00;81.00;82.00;83.00;84.00;85.00;86.00;87.00;88.00;89.00;90.00;91.00;92.00;93.00;94.00;95.00;96.00;97.00;98.00;99.00;100.00;101.00;102.00;103.00;104.00;105.00;106.00;107.00;108.00;109.00;110.00;111.00;112.00;113.00;114.00;115.00;116.00;117.00;118.00;119.00;120.00;121.00;122.00;123.00;124.00;125.00;126.00;127.00;128.00;129.00;130.00;131.00;132.00;133.00;134.00;135.00;136.00;137.00;138.00;139.00;140.00;141.00;142.00;143.00;144.00;145.00;146.00;147.00;148.00;149.00;150.00;151.00;152.00;153.00;154.00;155.00;156.00;157.00;158.00;159.00;160.00;161.00;162.00;163.00;164.00;165.00;166.00;167.00;168.00;169.00;170.00;171.00;172.00;173.00;174.00;175.00;176.00;177.00;178.00;179.00;180.00;181.00;182.00;183.00;184.00;185.00;186.00;187.00;188.00;189.00;190.00;191.00;192.00;193.00;194.00;195.00;196.00;197.00;198.00;199.00;200.00;201.00;202.00;203.00;204.00;205.00;206.00;207.00;208.00;209.00;210.00;211.00;212.00;213.00;214.00;215.00;216.00;217.00;218.00;219.00;220.00;221.00;222.00;223.00;224.00;225.00;226.00;227.00;228.00;229.00;230.00;231.00;232.00;233.00;234.00;235.00;236.00;237.00;238.00;239.00;240.00;241.00;242.00;243.00;244.00;245.00;246.00;247.00;248.00;249.00;250.00;251.00;252.00;253.00;254.00;255.00;256.00;257.00;258.00;259.00;260.00;261.00;262.00;263.00;264.00;265.00;266.00;267.00;268.00;269.00;270.00;271.00;272.00;273.00;274.00;275.00;276.00;277.00;278.00;279.00;280.00;281.00;282.00;283.00;284.00;285.00;286.00;287.00;288.00;289.00;290.00;291.00;292.00;293.00;294.00;295.00;296.00;297.00;298.00;299.00;300.00;
		SCAN_CURVETYPE=PDD
		SCAN_OFFAXIS_INPLANE=0.00
		SCAN_OFFAXIS_CROSSPLANE=0.00
		SCAN_ANGLE=0.00
		SCAN_DIAGONAL=NOT_DIAGONAL
		SCAN_DIRECTION=NEGATIVE
		MEAS_MEDIUM=WATER
		MEAS_PRESET=MEAS_CONTINUOUS_REFERENCE_SCAN
		MEAS_TIME=0.050
		MEAS_UNIT=A.U.
		PRESSURE=1013.25
		TEMPERATURE=20.00
		NORM_TEMPERATURE=20.00
		CORRECTION_FACTOR=1.0000
		EXPECTED_MAX_DOSE_RATE=3.00
		BEGIN_DATA
			0.00		738.97E-03		2.3250E+00
			1.00		797.26E-03		2.3232E+00
			2.00		920.06E-03		2.3304E+00
			3.00		1.0878E+00		2.3313E+00
			4.00		1.2315E+00		2.3313E+00
			5.00		1.3601E+00		2.3271E+00
			6.00		1.4781E+00		2.3280E+00
			7.00		1.5884E+00		2.3268E+00
			8.00		1.6785E+00		2.3199E+00
			9.00		1.7480E+00		2.3238E+00
			10.00		1.8081E+00		2.3262E+00
			11.00		1.8745E+00		2.3334E+00
			12.00		1.9307E+00		2.3277E+00
			13.00		1.9747E+00		2.3259E+00
			14.00		2.0100E+00		2.3298E+00
			15.00		2.0399E+00		2.3280E+00
			16.00		2.0711E+00		2.3277E+00
			17.00		2.0990E+00		2.3283E+00
			18.00		2.1238E+00		2.3265E+00
			19.00		2.1407E+00		2.3235E+00
			20.00		2.1537E+00		2.3304E+00
			21.00		2.1688E+00		2.3280E+00
			22.00		2.1846E+00		2.3235E+00
			23.00		2.1898E+00		2.3262E+00
			24.00		2.1993E+00		2.3298E+00
			25.00		2.2135E+00		2.3217E+00
			26.00		2.2098E+00		2.3283E+00
			27.00		2.2061E+00		2.3376E+00
			28.00		2.2119E+00		2.3301E+00
			29.00		2.2129E+00		2.3277E+00
			30.00		2.2102E+00		2.3292E+00
			31.00		2.2145E+00		2.3247E+00
			32.00		2.2083E+00		2.3271E+00
			33.00		2.2060E+00		2.3268E+00
			34.00		2.2030E+00		2.3232E+00
			35.00		2.1982E+00		2.3283E+00
			36.00		2.1936E+00		2.3304E+00
			37.00		2.1862E+00		2.3232E+00
			38.00		2.1845E+00		2.3223E+00
			39.00		2.1792E+00		2.3265E+00
			40.00		2.1639E+00		2.3250E+00
			41.00		2.1598E+00		2.3280E+00
			42.00		2.1569E+00		2.3256E+00
			43.00		2.1507E+00		2.3211E+00
			44.00		2.1404E+00		2.3253E+00
			45.00		2.1317E+00		2.3319E+00
			46.00		2.1268E+00		2.3289E+00
			47.00		2.1156E+00		2.3313E+00
			48.00		2.1011E+00		2.3316E+00
			49.00		2.1037E+00		2.3259E+00
			50.00		2.0973E+00		2.3244E+00
			51.00		2.0895E+00		2.3259E+00
			52.00		2.0824E+00		2.3295E+00
			53.00		2.0748E+00		2.3265E+00
			54.00		2.0670E+00		2.3295E+00
			55.00		2.0642E+00		2.3268E+00
			56.00		2.0495E+00		2.3274E+00
			57.00		2.0444E+00		2.3259E+00
			58.00		2.0388E+00		2.3367E+00
			59.00		2.0297E+00		2.3220E+00
			60.00		2.0209E+00		2.3232E+00
			61.00		2.0134E+00		2.3199E+00
			62.00		1.9987E+00		2.3325E+00
			63.00		1.9867E+00		2.3376E+00
			64.00		1.9863E+00		2.3274E+00
			65.00		1.9842E+00		2.3223E+00
			66.00		1.9726E+00		2.3193E+00
			67.00		1.9595E+00		2.3241E+00
			68.00		1.9514E+00		2.3337E+00
			69.00		1.9472E+00		2.3295E+00
			70.00		1.9384E+00		2.3292E+00
			71.00		1.9326E+00		2.3223E+00
			72.00		1.9245E+00		2.3274E+00
			73.00		1.9165E+00		2.3277E+00
			74.00		1.9101E+00		2.3214E+00
			75.00		1.9014E+00		2.3256E+00
			76.00		1.8918E+00		2.3295E+00
			77.00		1.8921E+00		2.3196E+00
			78.00		1.8759E+00		2.3301E+00
			79.00		1.8676E+00		2.3292E+00
			80.00		1.8620E+00		2.3298E+00
			81.00		1.8570E+00		2.3280E+00
			82.00		1.8456E+00		2.3310E+00
			83.00		1.8384E+00		2.3286E+00
			84.00		1.8336E+00		2.3298E+00
			85.00		1.8282E+00		2.3253E+00
			86.00		1.8214E+00		2.3241E+00
			87.00		1.8080E+00		2.3313E+00
			88.00		1.8068E+00		2.3262E+00
			89.00		1.7998E+00		2.3253E+00
			90.00		1.7882E+00		2.3286E+00
			91.00		1.7824E+00		2.3244E+00
			92.00		1.7716E+00		2.3301E+00
			93.00		1.7630E+00		2.3295E+00
			94.00		1.7533E+00		2.3322E+00
			95.00		1.7485E+00		2.3334E+00
			96.00		1.7390E+00		2.3376E+00
			97.00		1.7364E+00		2.3307E+00
			98.00		1.7302E+00		2.3217E+00
			99.00		1.7240E+00		2.3301E+00
			100.00		1.7143E+00		2.3310E+00
			101.00		1.7042E+00		2.3325E+00
			102.00		1.6955E+00		2.3373E+00
			103.00		1.6902E+00		2.3340E+00
			104.00		1.6875E+00		2.3271E+00
			105.00		1.6772E+00		2.3271E+00
			106.00		1.6697E+00		2.3286E+00
			107.00		1.6660E+00		2.3247E+00
			108.00		1.6617E+00		2.3217E+00
			109.00		1.6540E+00		2.3253E+00
			110.00		1.6443E+00		2.3298E+00
			111.00		1.6413E+00		2.3286E+00
			112.00		1.6327E+00		2.3280E+00
			113.00		1.6225E+00		2.3298E+00
			114.00		1.6139E+00		2.3310E+00
			115.00		1.6149E+00		2.3259E+00
			116.00		1.6082E+00		2.3262E+00
			117.00		1.5978E+00		2.3301E+00
			118.00		1.5935E+00		2.3250E+00
			119.00		1.5834E+00		2.3286E+00
			120.00		1.5781E+00		2.3382E+00
			121.00		1.5758E+00		2.3265E+00
			122.00		1.5730E+00		2.3172E+00
			123.00		1.5606E+00		2.3241E+00
			124.00		1.5520E+00		2.3292E+00
			125.00		1.5478E+00		2.3259E+00
			126.00		1.5363E+00		2.3316E+00
			127.00		1.5336E+00		2.3259E+00
			128.00		1.5267E+00		2.3286E+00
			129.00		1.5227E+00		2.3268E+00
			130.00		1.5157E+00		2.3217E+00
			131.00		1.5075E+00		2.3244E+00
			132.00		1.5088E+00		2.3223E+00
			133.00		1.4970E+00		2.3247E+00
			134.00		1.4834E+00		2.3379E+00
			135.00		1.4751E+00		2.3388E+00
			136.00		1.4765E+00		2.3325E+00
			137.00		1.4742E+00		2.3301E+00
			138.00		1.4660E+00		2.3268E+00
			139.00		1.4618E+00		2.3232E+00
			140.00		1.4514E+00		2.3274E+00
			141.00		1.4494E+00		2.3244E+00
			142.00		1.4417E+00		2.3265E+00
			143.00		1.4322E+00		2.3313E+00
			144.00		1.4278E+00		2.3280E+00
			145.00		1.4183E+00		2.3310E+00
			146.00		1.4102E+00		2.3337E+00
			147.00		1.4120E+00		2.3307E+00
			148.00		1.4038E+00		2.3316E+00
			149.00		1.4024E+00		2.3253E+00
			150.00		1.3939E+00		2.3265E+00
			151.00		1.3884E+00		2.3229E+00
			152.00		1.3833E+00		2.3205E+00
			153.00		1.3706E+00		2.3289E+00
			154.00		1.3663E+00		2.3274E+00
			155.00		1.3624E+00		2.3319E+00
			156.00		1.3565E+00		2.3310E+00
			157.00		1.3505E+00		2.3325E+00
			158.00		1.3433E+00		2.3472E+00
			159.00		1.3404E+00		2.3343E+00
			160.00		1.3302E+00		2.3388E+00
			161.00		1.3307E+00		2.3289E+00
			162.00		1.3245E+00		2.3307E+00
			163.00		1.3173E+00		2.3274E+00
			164.00		1.3118E+00		2.3235E+00
			165.00		1.3040E+00		2.3328E+00
			166.00		1.2990E+00		2.3325E+00
			167.00		1.2962E+00		2.3283E+00
			168.00		1.2858E+00		2.3313E+00
			169.00		1.2825E+00		2.3268E+00
			170.00		1.2813E+00		2.3157E+00
			171.00		1.2755E+00		2.3274E+00
			172.00		1.2716E+00		2.3265E+00
			173.00		1.2657E+00		2.3238E+00
			174.00		1.2550E+00		2.3268E+00
			175.00		1.2499E+00		2.3301E+00
			176.00		1.2486E+00		2.3277E+00
			177.00		1.2396E+00		2.3310E+00
			178.00		1.2361E+00		2.3265E+00
			179.00		1.2342E+00		2.3232E+00
			180.00		1.2316E+00		2.3238E+00
			181.00		1.2211E+00		2.3313E+00
			182.00		1.2158E+00		2.3313E+00
			183.00		1.2099E+00		2.3349E+00
			184.00		1.2057E+00		2.3364E+00
			185.00		1.2022E+00		2.3379E+00
			186.00		1.1946E+00		2.3346E+00
			187.00		1.1878E+00		2.3319E+00
			188.00		1.1850E+00		2.3340E+00
			189.00		1.1805E+00		2.3319E+00
			190.00		1.1749E+00		2.3292E+00
			191.00		1.1691E+00		2.3241E+00
			192.00		1.1659E+00		2.3253E+00
			193.00		1.1598E+00		2.3355E+00
			194.00		1.1594E+00		2.3319E+00
			195.00		1.1538E+00		2.3313E+00
			196.00		1.1479E+00		2.3283E+00
			197.00		1.1413E+00		2.3244E+00
			198.00		1.1364E+00		2.3157E+00
			199.00		1.1321E+00		2.3283E+00
			200.00		1.1263E+00		2.3319E+00
			201.00		1.1232E+00		2.3271E+00
			202.00		1.1170E+00		2.3337E+00
			203.00		1.1179E+00		2.3259E+00
			204.00		1.1106E+00		2.3250E+00
			205.00		1.1078E+00		2.3265E+00
			206.00		1.1026E+00		2.3220E+00
			207.00		1.0942E+00		2.3247E+00
			208.00		1.0874E+00		2.3364E+00
			209.00		1.0874E+00		2.3352E+00
			210.00		1.0831E+00		2.3313E+00
			211.00		1.0796E+00		2.3265E+00
			212.00		1.0752E+00		2.3256E+00
			213.00		1.0706E+00		2.3280E+00
			214.00		1.0657E+00		2.3229E+00
			215.00		1.0600E+00		2.3298E+00
			216.00		1.0558E+00		2.3277E+00
			217.00		1.0515E+00		2.3235E+00
			218.00		1.0463E+00		2.3259E+00
			219.00		1.0394E+00		2.3307E+00
			220.00		1.0382E+00		2.3268E+00
			221.00		1.0309E+00		2.3316E+00
			222.00		1.0255E+00		2.3310E+00
			223.00		1.0242E+00		2.3307E+00
			224.00		1.0205E+00		2.3310E+00
			225.00		1.0140E+00		2.3310E+00
			226.00		1.0082E+00		2.3277E+00
			227.00		1.0071E+00		2.3238E+00
			228.00		1.0028E+00		2.3217E+00
			229.00		1.0000E+00		2.3205E+00
			230.00		994.33E-03		2.3274E+00
			231.00		988.93E-03		2.3316E+00
			232.00		986.86E-03		2.3286E+00
			233.00		981.19E-03		2.3289E+00
			234.00		976.32E-03		2.3310E+00
			235.00		968.77E-03		2.3340E+00
			236.00		971.10E-03		2.3250E+00
			237.00		967.68E-03		2.3295E+00
			238.00		963.94E-03		2.3214E+00
			239.00		958.02E-03		2.3223E+00
			240.00		950.48E-03		2.3325E+00
			241.00		947.69E-03		2.3283E+00
			242.00		948.76E-03		2.3244E+00
			243.00		945.37E-03		2.3229E+00
			244.00		938.85E-03		2.3253E+00
			245.00		933.75E-03		2.3274E+00
			246.00		928.20E-03		2.3274E+00
			247.00		924.01E-03		2.3331E+00
			248.00		920.64E-03		2.3325E+00
			249.00		914.83E-03		2.3283E+00
			250.00		913.59E-03		2.3262E+00
			251.00		909.75E-03		2.3202E+00
			252.00		907.69E-03		2.3238E+00
			253.00		897.90E-03		2.3331E+00
			254.00		899.47E-03		2.3277E+00
			255.00		897.24E-03		2.3268E+00
			256.00		888.79E-03		2.3334E+00
			257.00		886.02E-03		2.3319E+00
			258.00		886.31E-03		2.3301E+00
			259.00		880.89E-03		2.3247E+00
			260.00		876.06E-03		2.3286E+00
			261.00		876.40E-03		2.3229E+00
			262.00		867.07E-03		2.3268E+00
			263.00		865.02E-03		2.3292E+00
			264.00		863.14E-03		2.3280E+00
			265.00		859.45E-03		2.3202E+00
			266.00		853.30E-03		2.3292E+00
			267.00		849.69E-03		2.3352E+00
			268.00		851.71E-03		2.3265E+00
			269.00		843.03E-03		2.3298E+00
			270.00		838.10E-03		2.3292E+00
			271.00		838.82E-03		2.3229E+00
			272.00		835.10E-03		2.3268E+00
			273.00		834.28E-03		2.3208E+00
			274.00		828.59E-03		2.3277E+00
			275.00		823.05E-03		2.3295E+00
			276.00		815.04E-03		2.3373E+00
			277.00		816.44E-03		2.3355E+00
			278.00		813.55E-03		2.3298E+00
			279.00		808.90E-03		2.3265E+00
			280.00		803.92E-03		2.3271E+00
			281.00		799.23E-03		2.3340E+00
			282.00		802.45E-03		2.3295E+00
			283.00		799.97E-03		2.3217E+00
			284.00		794.66E-03		2.3259E+00
			285.00		789.87E-03		2.3343E+00
			286.00		788.38E-03		2.3292E+00
			287.00		786.29E-03		2.3274E+00
			288.00		780.80E-03		2.3280E+00
			289.00		777.03E-03		2.3304E+00
			290.00		773.87E-03		2.3310E+00
			291.00		770.18E-03		2.3262E+00
			292.00		768.27E-03		2.3238E+00
			293.00		762.23E-03		2.3304E+00
			294.00		760.63E-03		2.3286E+00
			295.00		758.96E-03		2.3262E+00
			296.00		755.58E-03		2.3271E+00
			297.00		751.71E-03		2.3235E+00
			298.00		749.61E-03		2.3088E+00
			299.00		746.23E-03		2.3277E+00
			300.00		744.29E-03		2.3253E+00
		END_DATA
	END_SCAN  1
END_SCAN_DATA
