BEGIN_SCAN_DATA
	FORMAT=CC-Export V1.9                  
	FILE_CREATION_DATE=19-Nov-2022 12:49:14
	LAST_MODIFIED=19-Nov-2022 12:49:14
	BEGIN_SCAN  1
		TASK_NAME=tba PDD Profiles
		PROGRAM=WaterTankScans
		MEAS_DATE=19-Nov-2022 12:48:33
		LINAC=L1 ELEKTA VERSA
		MODALITY=X
		ISOCENTER=1000.00
		INPLANE_AXIS=Inplane
		CROSSPLANE_AXIS=Crossplane
		DEPTH_AXIS=Depth
		INPLANE_AXIS_DIR=GUN_TARGET
		CROSSPLANE_AXIS_DIR=LEFT_RIGHT
		DEPTH_AXIS_DIR=UP_DOWN
		ENERGY=18.00
		NOMINAL_DMAX=30.00
		SSD=1000.00
		BLOCK=0
		WEDGE_ANGLE=0.00
		FIELD_INPLANE=100.00
		FIELD_CROSSPLANE=100.00
		FIELD_TYPE=RECTANGULAR
		GANTRY=0.00
		GANTRY_UPRIGHT_POSITION=0
		GANTRY_ROTATION=CW
		COLL_ANGLE=0.00
		COLL_OFFSET_INPLANE=0.00
		COLL_OFFSET_CROSSPLANE=0.00
		SCAN_DEVICE=BeamScan
		SCAN_DEVICE_SETUP=BARA_LEFT_RIGHT
		ELECTROMETER=BeamScan
		RANGE_FIELD=LOW
		RANGE_REFERENCE=LOW
		DETECTOR=THIMBLE_CHAMBER
		DETECTOR_SUBCODE=SEMIFLEX
		DETECTOR_RADIUS=2.40
		DETECTOR_NAME=PTW Semiflex 3D (Field)
		DETECTOR_SN=141799
		DETECTOR_CALIBRATION=500000000.00
		DETECTOR_IS_CALIBRATED=1
		DETECTOR_REFERENCE=THIMBLE_CHAMBER
		DETECTOR_REFERENCE_SUBCODE=SEMIFLEX
		DETECTOR_REFERENCE_RADIUS=2.40
		DETECTOR_REFERENCE_NAME=PTW Semiflex 3D (REF)
		DETECTOR_REFERENCE_SN=141800
		DETECTOR_REFERENCE_IS_CALIBRATED=0
		DETECTOR_REFERENCE_CALIBRATION=500000000.00
		DETECTOR_HV=400.0
		DETECTOR_REFERENCE_HV=400.0
		DETECTOR_ORIENTATION=HORIZONTAL
		FILTER=FF
		SCAN_SPEED_PROFILE=0.00
		SCAN_PROF_SPEED_DEP=DEPTH
		SCAN_SPEED_PDD=20.00
		SCAN_PDD_SPEED_DEP=ENERGY
		REF_FIELD_DEPTH=0.00
		REF_FIELD_DEFINED=WATER_SURFACE
		REF_FIELD_INPLANE=100.00
		REF_FIELD_CROSSPLANE=100.00
		REF_SCAN_POSITIONS=0.00;1.00;2.00;3.00;4.00;5.00;6.00;7.00;8.00;9.00;10.00;11.00;12.00;13.00;14.00;15.00;16.00;17.00;18.00;19.00;20.00;21.00;22.00;23.00;24.00;25.00;26.00;27.00;28.00;29.00;30.00;31.00;32.00;33.00;34.00;35.00;36.00;37.00;38.00;39.00;40.00;41.00;42.00;43.00;44.00;45.00;46.00;47.00;48.00;49.00;50.00;51.00;52.00;53.00;54.00;55.00;56.00;57.00;58.00;59.00;60.00;61.00;62.00;63.00;64.00;65.00;66.00;67.00;68.00;69.00;70.00;71.00;72.00;73.00;74.00;75.00;76.00;77.00;78.00;79.00;80.00;81.00;82.00;83.00;84.00;85.00;86.00;87.00;88.00;89.00;90.00;91.00;92.00;93.00;94.00;95.00;96.00;97.00;98.00;99.00;100.00;101.00;102.00;103.00;104.00;105.00;106.00;107.00;108.00;109.00;110.00;111.00;112.00;113.00;114.00;115.00;116.00;117.00;118.00;119.00;120.00;121.00;122.00;123.00;124.00;125.00;126.00;127.00;128.00;129.00;130.00;131.00;132.00;133.00;134.00;135.00;136.00;137.00;138.00;139.00;140.00;141.00;142.00;143.00;144.00;145.00;146.00;147.00;148.00;149.00;150.00;151.00;152.00;153.00;154.00;155.00;156.00;157.00;158.00;159.00;160.00;161.00;162.00;163.00;164.00;165.00;166.00;167.00;168.00;169.00;170.00;171.00;172.00;173.00;174.00;175.00;176.00;177.00;178.00;179.00;180.00;181.00;182.00;183.00;184.00;185.00;186.00;187.00;188.00;189.00;190.00;191.00;192.00;193.00;194.00;195.00;196.00;197.00;198.00;199.00;200.00;201.00;202.00;203.00;204.00;205.00;206.00;207.00;208.00;209.00;210.00;211.00;212.00;213.00;214.00;215.00;216.00;217.00;218.00;219.00;220.00;221.00;222.00;223.00;224.00;225.00;226.00;227.00;228.00;229.00;230.00;231.00;232.00;233.00;234.00;235.00;236.00;237.00;238.00;239.00;240.00;241.00;242.00;243.00;244.00;245.00;246.00;247.00;248.00;249.00;250.00;251.00;252.00;253.00;254.00;255.00;256.00;257.00;258.00;259.00;260.00;261.00;262.00;263.00;264.00;265.00;266.00;267.00;268.00;269.00;270.00;271.00;272.00;273.00;274.00;275.00;276.00;277.00;278.00;279.00;280.00;281.00;282.00;283.00;284.00;285.00;286.00;287.00;288.00;289.00;290.00;291.00;292.00;293.00;294.00;295.00;296.00;297.00;298.00;299.00;300.00;
		SCAN_CURVETYPE=PDD
		SCAN_OFFAXIS_INPLANE=0.00
		SCAN_OFFAXIS_CROSSPLANE=0.00
		SCAN_ANGLE=0.00
		SCAN_DIAGONAL=NOT_DIAGONAL
		SCAN_DIRECTION=NEGATIVE
		MEAS_MEDIUM=WATER
		MEAS_PRESET=MEAS_CONTINUOUS_SCAN
		MEAS_TIME=0.050
		MEAS_UNIT=Gy/min
		PRESSURE=1013.25
		TEMPERATURE=20.00
		NORM_TEMPERATURE=20.00
		CORRECTION_FACTOR=1.0000
		EXPECTED_MAX_DOSE_RATE=3.00
		BEGIN_DATA
			0.00		1.3992E+00
			1.00		1.4715E+00
			2.00		1.5963E+00
			3.00		1.8378E+00
			4.00		2.1780E+00
			5.00		2.4690E+00
			6.00		2.7357E+00
			7.00		2.9661E+00
			8.00		3.1620E+00
			9.00		3.3180E+00
			10.00		3.4680E+00
			11.00		3.5880E+00
			12.00		3.6990E+00
			13.00		3.7950E+00
			14.00		3.8760E+00
			15.00		3.9660E+00
			16.00		4.0470E+00
			17.00		4.1100E+00
			18.00		4.1490E+00
			19.00		4.1850E+00
			20.00		4.2270E+00
			21.00		4.2600E+00
			22.00		4.2810E+00
			23.00		4.3110E+00
			24.00		4.3350E+00
			25.00		4.3590E+00
			26.00		4.3590E+00
			27.00		4.3800E+00
			28.00		4.3860E+00
			29.00		4.3920E+00
			30.00		4.3890E+00
			31.00		4.4010E+00
			32.00		4.3860E+00
			33.00		4.3770E+00
			34.00		4.3800E+00
			35.00		4.3680E+00
			36.00		4.3650E+00
			37.00		4.3530E+00
			38.00		4.3380E+00
			39.00		4.3260E+00
			40.00		4.2990E+00
			41.00		4.3080E+00
			42.00		4.3050E+00
			43.00		4.2870E+00
			44.00		4.2750E+00
			45.00		4.2570E+00
			46.00		4.2390E+00
			47.00		4.2360E+00
			48.00		4.2240E+00
			49.00		4.2150E+00
			50.00		4.2000E+00
			51.00		4.1880E+00
			52.00		4.1610E+00
			53.00		4.1430E+00
			54.00		4.1310E+00
			55.00		4.1100E+00
			56.00		4.0920E+00
			57.00		4.0800E+00
			58.00		4.0650E+00
			59.00		4.0650E+00
			60.00		4.0500E+00
			61.00		4.0200E+00
			62.00		4.0170E+00
			63.00		3.9930E+00
			64.00		3.9930E+00
			65.00		3.9660E+00
			66.00		3.9300E+00
			67.00		3.9180E+00
			68.00		3.9060E+00
			69.00		3.8880E+00
			70.00		3.8790E+00
			71.00		3.8580E+00
			72.00		3.8340E+00
			73.00		3.8160E+00
			74.00		3.8070E+00
			75.00		3.7950E+00
			76.00		3.7860E+00
			77.00		3.7800E+00
			78.00		3.7530E+00
			79.00		3.7440E+00
			80.00		3.7350E+00
			81.00		3.7260E+00
			82.00		3.7050E+00
			83.00		3.6900E+00
			84.00		3.6690E+00
			85.00		3.6510E+00
			86.00		3.6330E+00
			87.00		3.6240E+00
			88.00		3.6090E+00
			89.00		3.5880E+00
			90.00		3.5670E+00
			91.00		3.5670E+00
			92.00		3.5550E+00
			93.00		3.5370E+00
			94.00		3.5220E+00
			95.00		3.5010E+00
			96.00		3.5010E+00
			97.00		3.4920E+00
			98.00		3.4710E+00
			99.00		3.4530E+00
			100.00		3.4350E+00
			101.00		3.4230E+00
			102.00		3.4080E+00
			103.00		3.3870E+00
			104.00		3.3720E+00
			105.00		3.3540E+00
			106.00		3.3480E+00
			107.00		3.3390E+00
			108.00		3.3240E+00
			109.00		3.3030E+00
			110.00		3.2910E+00
			111.00		3.2820E+00
			112.00		3.2730E+00
			113.00		3.2580E+00
			114.00		3.2430E+00
			115.00		3.2220E+00
			116.00		3.2130E+00
			117.00		3.1890E+00
			118.00		3.1860E+00
			119.00		3.1680E+00
			120.00		3.1590E+00
			121.00		3.1530E+00
			122.00		3.1440E+00
			123.00		3.1320E+00
			124.00		3.1080E+00
			125.00		3.0960E+00
			126.00		3.0840E+00
			127.00		3.0630E+00
			128.00		3.0600E+00
			129.00		3.0480E+00
			130.00		3.0330E+00
			131.00		3.0150E+00
			132.00		3.0090E+00
			133.00		2.9964E+00
			134.00		2.9856E+00
			135.00		2.9727E+00
			136.00		2.9607E+00
			137.00		2.9400E+00
			138.00		2.9274E+00
			139.00		2.9160E+00
			140.00		2.8902E+00
			141.00		2.8929E+00
			142.00		2.8821E+00
			143.00		2.8698E+00
			144.00		2.8656E+00
			145.00		2.8494E+00
			146.00		2.8269E+00
			147.00		2.8260E+00
			148.00		2.8131E+00
			149.00		2.8014E+00
			150.00		2.7924E+00
			151.00		2.7744E+00
			152.00		2.7615E+00
			153.00		2.7540E+00
			154.00		2.7450E+00
			155.00		2.7285E+00
			156.00		2.7165E+00
			157.00		2.7192E+00
			158.00		2.7048E+00
			159.00		2.6889E+00
			160.00		2.6787E+00
			161.00		2.6646E+00
			162.00		2.6517E+00
			163.00		2.6367E+00
			164.00		2.6289E+00
			165.00		2.6130E+00
			166.00		2.6070E+00
			167.00		2.5941E+00
			168.00		2.5866E+00
			169.00		2.5773E+00
			170.00		2.5638E+00
			171.00		2.5539E+00
			172.00		2.5461E+00
			173.00		2.5341E+00
			174.00		2.5173E+00
			175.00		2.5050E+00
			176.00		2.5041E+00
			177.00		2.5026E+00
			178.00		2.4834E+00
			179.00		2.4762E+00
			180.00		2.4690E+00
			181.00		2.4417E+00
			182.00		2.4324E+00
			183.00		2.4240E+00
			184.00		2.4132E+00
			185.00		2.4066E+00
			186.00		2.3976E+00
			187.00		2.3889E+00
			188.00		2.3805E+00
			189.00		2.3697E+00
			190.00		2.3532E+00
			191.00		2.3484E+00
			192.00		2.3415E+00
			193.00		2.3229E+00
			194.00		2.3085E+00
			195.00		2.3088E+00
			196.00		2.3016E+00
			197.00		2.2881E+00
			198.00		2.2761E+00
			199.00		2.2647E+00
			200.00		2.2593E+00
			201.00		2.2536E+00
			202.00		2.2452E+00
			203.00		2.2275E+00
			204.00		2.2173E+00
			205.00		2.2134E+00
			206.00		2.2044E+00
			207.00		2.2011E+00
			208.00		2.1882E+00
			209.00		2.1741E+00
			210.00		2.1627E+00
			211.00		2.1600E+00
			212.00		2.1423E+00
			213.00		2.1423E+00
			214.00		2.1324E+00
			215.00		2.1240E+00
			216.00		2.1078E+00
			217.00		2.0994E+00
			218.00		2.0979E+00
			219.00		2.0871E+00
			220.00		2.0760E+00
			221.00		2.0712E+00
			222.00		2.0505E+00
			223.00		2.0502E+00
			224.00		2.0454E+00
			225.00		2.0388E+00
			226.00		2.0310E+00
			227.00		2.0211E+00
			228.00		2.0055E+00
			229.00		2.0031E+00
			230.00		1.9920E+00
			231.00		1.9842E+00
			232.00		1.9698E+00
			233.00		1.9617E+00
			234.00		1.9599E+00
			235.00		1.9506E+00
			236.00		1.9416E+00
			237.00		1.9374E+00
			238.00		1.9257E+00
			239.00		1.9197E+00
			240.00		1.9095E+00
			241.00		1.9053E+00
			242.00		1.8984E+00
			243.00		1.8900E+00
			244.00		1.8855E+00
			245.00		1.8774E+00
			246.00		1.8741E+00
			247.00		1.8660E+00
			248.00		1.8507E+00
			249.00		1.8414E+00
			250.00		1.8354E+00
			251.00		1.8249E+00
			252.00		1.8201E+00
			253.00		1.8078E+00
			254.00		1.8078E+00
			255.00		1.7976E+00
			256.00		1.7898E+00
			257.00		1.7820E+00
			258.00		1.7784E+00
			259.00		1.7664E+00
			260.00		1.7526E+00
			261.00		1.7526E+00
			262.00		1.7418E+00
			263.00		1.7385E+00
			264.00		1.7268E+00
			265.00		1.7211E+00
			266.00		1.7199E+00
			267.00		1.7097E+00
			268.00		1.7016E+00
			269.00		1.7010E+00
			270.00		1.6920E+00
			271.00		1.6767E+00
			272.00		1.6668E+00
			273.00		1.6683E+00
			274.00		1.6677E+00
			275.00		1.6566E+00
			276.00		1.6491E+00
			277.00		1.6401E+00
			278.00		1.6248E+00
			279.00		1.6302E+00
			280.00		1.6248E+00
			281.00		1.6143E+00
			282.00		1.6041E+00
			283.00		1.6020E+00
			284.00		1.5924E+00
			285.00		1.5897E+00
			286.00		1.5777E+00
			287.00		1.5720E+00
			288.00		1.5711E+00
			289.00		1.5519E+00
			290.00		1.5510E+00
			291.00		1.5471E+00
			292.00		1.5444E+00
			293.00		1.5402E+00
			294.00		1.5312E+00
			295.00		1.5210E+00
			296.00		1.5165E+00
			297.00		1.5093E+00
			298.00		1.5018E+00
			299.00		1.4958E+00
			300.00		1.4880E+00
		END_DATA
	END_SCAN  1
END_SCAN_DATA
