BEGIN_SCAN_DATA
	FORMAT=CC-Export V1.9                  
	FILE_CREATION_DATE=18-Nov-2022 08:00:43
	LAST_MODIFIED=18-Nov-2022 08:00:43
	BEGIN_SCAN  1
		TASK_NAME=tba PDD Profiles
		PROGRAM=WaterTankScans
		MEAS_DATE=18-Nov-2022 08:00:12
		LINAC=L3 ELEKTA SYNERGY
		MODALITY=X
		ISOCENTER=1000.00
		INPLANE_AXIS=Inplane
		CROSSPLANE_AXIS=Crossplane
		DEPTH_AXIS=Depth
		INPLANE_AXIS_DIR=GUN_TARGET
		CROSSPLANE_AXIS_DIR=LEFT_RIGHT
		DEPTH_AXIS_DIR=UP_DOWN
		ENERGY=18.00
		NOMINAL_DMAX=30.00
		SSD=1000.00
		BLOCK=0
		WEDGE_ANGLE=0.00
		FIELD_INPLANE=100.00
		FIELD_CROSSPLANE=100.00
		FIELD_TYPE=RECTANGULAR
		GANTRY=0.00
		GANTRY_UPRIGHT_POSITION=0
		GANTRY_ROTATION=CW
		COLL_ANGLE=0.00
		COLL_OFFSET_INPLANE=0.00
		COLL_OFFSET_CROSSPLANE=0.00
		SCAN_DEVICE=BeamScan
		SCAN_DEVICE_SETUP=BARA_LEFT_RIGHT
		ELECTROMETER=BeamScan
		RANGE_FIELD=MEDIUM
		RANGE_REFERENCE=MEDIUM
		DETECTOR=THIMBLE_CHAMBER
		DETECTOR_SUBCODE=SEMIFLEX
		DETECTOR_RADIUS=2.40
		DETECTOR_NAME=PTW Semiflex 3D (Field)
		DETECTOR_SN=141799
		DETECTOR_CALIBRATION=500000000.00
		DETECTOR_IS_CALIBRATED=1
		DETECTOR_REFERENCE=THIMBLE_CHAMBER
		DETECTOR_REFERENCE_SUBCODE=SEMIFLEX
		DETECTOR_REFERENCE_RADIUS=2.40
		DETECTOR_REFERENCE_NAME=PTW Semiflex 3D (REF)
		DETECTOR_REFERENCE_SN=141800
		DETECTOR_REFERENCE_IS_CALIBRATED=0
		DETECTOR_REFERENCE_CALIBRATION=500000000.00
		DETECTOR_HV=400.0
		DETECTOR_REFERENCE_HV=400.0
		DETECTOR_ORIENTATION=HORIZONTAL
		FILTER=FF
		SCAN_SPEED_PROFILE=0.00
		SCAN_PROF_SPEED_DEP=DEPTH
		SCAN_SPEED_PDD=20.00
		SCAN_PDD_SPEED_DEP=ENERGY
		REF_FIELD_DEPTH=0.00
		REF_FIELD_DEFINED=WATER_SURFACE
		REF_FIELD_INPLANE=100.00
		REF_FIELD_CROSSPLANE=100.00
		REF_SCAN_POSITIONS=0.00;1.00;2.00;3.00;4.00;5.00;6.00;7.00;8.00;9.00;10.00;11.00;12.00;13.00;14.00;15.00;16.00;17.00;18.00;19.00;20.00;21.00;22.00;23.00;24.00;25.00;26.00;27.00;28.00;29.00;30.00;31.00;32.00;33.00;34.00;35.00;36.00;37.00;38.00;39.00;40.00;41.00;42.00;43.00;44.00;45.00;46.00;47.00;48.00;49.00;50.00;51.00;52.00;53.00;54.00;55.00;56.00;57.00;58.00;59.00;60.00;61.00;62.00;63.00;64.00;65.00;66.00;67.00;68.00;69.00;70.00;71.00;72.00;73.00;74.00;75.00;76.00;77.00;78.00;79.00;80.00;81.00;82.00;83.00;84.00;85.00;86.00;87.00;88.00;89.00;90.00;91.00;92.00;93.00;94.00;95.00;96.00;97.00;98.00;99.00;100.00;101.00;102.00;103.00;104.00;105.00;106.00;107.00;108.00;109.00;110.00;111.00;112.00;113.00;114.00;115.00;116.00;117.00;118.00;119.00;120.00;121.00;122.00;123.00;124.00;125.00;126.00;127.00;128.00;129.00;130.00;131.00;132.00;133.00;134.00;135.00;136.00;137.00;138.00;139.00;140.00;141.00;142.00;143.00;144.00;145.00;146.00;147.00;148.00;149.00;150.00;151.00;152.00;153.00;154.00;155.00;156.00;157.00;158.00;159.00;160.00;161.00;162.00;163.00;164.00;165.00;166.00;167.00;168.00;169.00;170.00;171.00;172.00;173.00;174.00;175.00;176.00;177.00;178.00;179.00;180.00;181.00;182.00;183.00;184.00;185.00;186.00;187.00;188.00;189.00;190.00;191.00;192.00;193.00;194.00;195.00;196.00;197.00;198.00;199.00;200.00;201.00;202.00;203.00;204.00;205.00;206.00;207.00;208.00;209.00;210.00;211.00;212.00;213.00;214.00;215.00;216.00;217.00;218.00;219.00;220.00;221.00;222.00;223.00;224.00;225.00;226.00;227.00;228.00;229.00;230.00;231.00;232.00;233.00;234.00;235.00;236.00;237.00;238.00;239.00;240.00;241.00;242.00;243.00;244.00;245.00;246.00;247.00;248.00;249.00;250.00;251.00;252.00;253.00;254.00;255.00;256.00;257.00;258.00;259.00;260.00;261.00;262.00;263.00;264.00;265.00;266.00;267.00;268.00;269.00;270.00;271.00;272.00;273.00;274.00;275.00;276.00;277.00;278.00;279.00;280.00;281.00;282.00;283.00;284.00;285.00;286.00;287.00;288.00;289.00;290.00;291.00;292.00;293.00;294.00;295.00;296.00;297.00;298.00;299.00;300.00;
		SCAN_CURVETYPE=PDD
		SCAN_OFFAXIS_INPLANE=0.00
		SCAN_OFFAXIS_CROSSPLANE=0.00
		SCAN_ANGLE=0.00
		SCAN_DIAGONAL=NOT_DIAGONAL
		SCAN_DIRECTION=NEGATIVE
		MEAS_MEDIUM=WATER
		MEAS_PRESET=MEAS_CONTINUOUS_REFERENCE_SCAN
		MEAS_TIME=0.050
		MEAS_UNIT=A.U.
		PRESSURE=1013.25
		TEMPERATURE=20.00
		NORM_TEMPERATURE=20.00
		CORRECTION_FACTOR=1.0000
		EXPECTED_MAX_DOSE_RATE=3.00
		BEGIN_DATA
			0.00		309.34E-03		5.0430E+00
			1.00		334.13E-03		5.0460E+00
			2.00		385.39E-03		5.0520E+00
			3.00		459.35E-03		5.0550E+00
			4.00		523.47E-03		5.0490E+00
			5.00		576.53E-03		5.0370E+00
			6.00		625.15E-03		5.0340E+00
			7.00		669.04E-03		5.0490E+00
			8.00		705.81E-03		5.0580E+00
			9.00		739.90E-03		5.0520E+00
			10.00		769.51E-03		5.0370E+00
			11.00		793.92E-03		5.0370E+00
			12.00		814.13E-03		5.0520E+00
			13.00		834.03E-03		5.0430E+00
			14.00		851.04E-03		5.0550E+00
			15.00		864.45E-03		5.0460E+00
			16.00		878.95E-03		5.0310E+00
			17.00		890.48E-03		5.0400E+00
			18.00		901.37E-03		5.0490E+00
			19.00		911.96E-03		5.0430E+00
			20.00		918.40E-03		5.0370E+00
			21.00		923.08E-03		5.0310E+00
			22.00		927.89E-03		5.0340E+00
			23.00		933.25E-03		5.0340E+00
			24.00		935.00E-03		5.0310E+00
			25.00		937.43E-03		5.0340E+00
			26.00		941.70E-03		5.0430E+00
			27.00		943.98E-03		5.0340E+00
			28.00		946.27E-03		5.0250E+00
			29.00		945.83E-03		5.0400E+00
			30.00		945.77E-03		5.0340E+00
			31.00		946.33E-03		5.0310E+00
			32.00		944.61E-03		5.0370E+00
			33.00		943.42E-03		5.0370E+00
			34.00		945.11E-03		5.0280E+00
			35.00		941.56E-03		5.0310E+00
			36.00		937.05E-03		5.0520E+00
			37.00		937.54E-03		5.0430E+00
			38.00		936.94E-03		5.0430E+00
			39.00		933.33E-03		5.0400E+00
			40.00		929.21E-03		5.0430E+00
			41.00		929.80E-03		5.0430E+00
			42.00		928.02E-03		5.0430E+00
			43.00		924.45E-03		5.0430E+00
			44.00		919.00E-03		5.0370E+00
			45.00		916.17E-03		5.0460E+00
			46.00		914.49E-03		5.0520E+00
			47.00		908.01E-03		5.0550E+00
			48.00		905.69E-03		5.0580E+00
			49.00		904.45E-03		5.0550E+00
			50.00		900.89E-03		5.0550E+00
			51.00		898.87E-03		5.0430E+00
			52.00		894.83E-03		5.0490E+00
			53.00		891.67E-03		5.0400E+00
			54.00		888.62E-03		5.0370E+00
			55.00		886.24E-03		5.0370E+00
			56.00		882.67E-03		5.0370E+00
			57.00		879.17E-03		5.0400E+00
			58.00		875.74E-03		5.0460E+00
			59.00		872.18E-03		5.0460E+00
			60.00		868.17E-03		5.0520E+00
			61.00		865.04E-03		5.0460E+00
			62.00		862.75E-03		5.0490E+00
			63.00		857.48E-03		5.0520E+00
			64.00		854.51E-03		5.0520E+00
			65.00		850.27E-03		5.0490E+00
			66.00		846.20E-03		5.0520E+00
			67.00		844.42E-03		5.0520E+00
			68.00		843.64E-03		5.0460E+00
			69.00		838.69E-03		5.0400E+00
			70.00		833.33E-03		5.0400E+00
			71.00		831.45E-03		5.0370E+00
			72.00		829.25E-03		5.0250E+00
			73.00		825.60E-03		5.0400E+00
			74.00		819.58E-03		5.0550E+00
			75.00		819.05E-03		5.0400E+00
			76.00		815.37E-03		5.0370E+00
			77.00		811.94E-03		5.0250E+00
			78.00		810.26E-03		5.0280E+00
			79.00		804.05E-03		5.0370E+00
			80.00		803.57E-03		5.0400E+00
			81.00		797.74E-03		5.0430E+00
			82.00		794.64E-03		5.0400E+00
			83.00		792.01E-03		5.0340E+00
			84.00		787.97E-03		5.0370E+00
			85.00		786.78E-03		5.0370E+00
			86.00		784.06E-03		5.0430E+00
			87.00		780.02E-03		5.0460E+00
			88.00		776.32E-03		5.0430E+00
			89.00		771.11E-03		5.0460E+00
			90.00		768.00E-03		5.0430E+00
			91.00		766.67E-03		5.0400E+00
			92.00		763.52E-03		5.0490E+00
			93.00		762.19E-03		5.0460E+00
			94.00		758.62E-03		5.0460E+00
			95.00		753.71E-03		5.0550E+00
			96.00		751.49E-03		5.0460E+00
			97.00		748.51E-03		5.0460E+00
			98.00		748.21E-03		5.0400E+00
			99.00		744.79E-03		5.0430E+00
			100.00		738.12E-03		5.0520E+00
			101.00		736.75E-03		5.0370E+00
			102.00		735.24E-03		5.0310E+00
			103.00		728.41E-03		5.0370E+00
			104.00		726.46E-03		5.0340E+00
			105.00		724.24E-03		5.0370E+00
			106.00		722.72E-03		5.0310E+00
			107.00		718.19E-03		5.0460E+00
			108.00		715.65E-03		5.0430E+00
			109.00		715.31E-03		5.0370E+00
			110.00		709.10E-03		5.0430E+00
			111.00		705.71E-03		5.0460E+00
			112.00		703.15E-03		5.0430E+00
			113.00		700.95E-03		5.0460E+00
			114.00		699.82E-03		5.0370E+00
			115.00		695.60E-03		5.0460E+00
			116.00		693.22E-03		5.0460E+00
			117.00		688.84E-03		5.0520E+00
			118.00		686.27E-03		5.0490E+00
			119.00		684.49E-03		5.0490E+00
			120.00		682.74E-03		5.0400E+00
			121.00		679.98E-03		5.0340E+00
			122.00		676.61E-03		5.0280E+00
			123.00		672.62E-03		5.0400E+00
			124.00		669.24E-03		5.0430E+00
			125.00		667.26E-03		5.0400E+00
			126.00		665.08E-03		5.0430E+00
			127.00		661.31E-03		5.0400E+00
			128.00		657.14E-03		5.0400E+00
			129.00		655.13E-03		5.0280E+00
			130.00		653.37E-03		5.0370E+00
			131.00		651.16E-03		5.0310E+00
			132.00		648.99E-03		5.0340E+00
			133.00		645.83E-03		5.0400E+00
			134.00		641.67E-03		5.0400E+00
			135.00		640.48E-03		5.0400E+00
			136.00		638.69E-03		5.0400E+00
			137.00		635.39E-03		5.0520E+00
			138.00		632.52E-03		5.0370E+00
			139.00		628.95E-03		5.0370E+00
			140.00		626.26E-03		5.0490E+00
			141.00		623.29E-03		5.0490E+00
			142.00		620.69E-03		5.0460E+00
			143.00		619.50E-03		5.0460E+00
			144.00		616.67E-03		5.0400E+00
			145.00		614.38E-03		5.0490E+00
			146.00		611.05E-03		5.0520E+00
			147.00		608.70E-03		5.0370E+00
			148.00		607.14E-03		5.0400E+00
			149.00		604.40E-03		5.0430E+00
			150.00		600.95E-03		5.0370E+00
			151.00		598.57E-03		5.0370E+00
			152.00		595.83E-03		5.0400E+00
			153.00		592.97E-03		5.0340E+00
			154.00		591.78E-03		5.0340E+00
			155.00		590.10E-03		5.0280E+00
			156.00		587.36E-03		5.0310E+00
			157.00		584.18E-03		5.0430E+00
			158.00		581.89E-03		5.0370E+00
			159.00		579.86E-03		5.0340E+00
			160.00		578.57E-03		5.0400E+00
			161.00		574.15E-03		5.0370E+00
			162.00		572.79E-03		5.0280E+00
			163.00		569.64E-03		5.0400E+00
			164.00		566.84E-03		5.0490E+00
			165.00		564.13E-03		5.0520E+00
			166.00		564.03E-03		5.0370E+00
			167.00		562.24E-03		5.0370E+00
			168.00		558.67E-03		5.0370E+00
			169.00		555.49E-03		5.0280E+00
			170.00		553.50E-03		5.0190E+00
			171.00		550.66E-03		5.0340E+00
			172.00		548.48E-03		5.0430E+00
			173.00		546.48E-03		5.0340E+00
			174.00		543.78E-03		5.0370E+00
			175.00		542.31E-03		5.0340E+00
			176.00		540.85E-03		5.0310E+00
			177.00		536.63E-03		5.0370E+00
			178.00		534.21E-03		5.0430E+00
			179.00		533.09E-03		5.0310E+00
			180.00		530.08E-03		5.0370E+00
			181.00		527.63E-03		5.0490E+00
			182.00		526.79E-03		5.0400E+00
			183.00		522.88E-03		5.0490E+00
			184.00		522.57E-03		5.0520E+00
			185.00		520.26E-03		5.0340E+00
			186.00		518.78E-03		5.0310E+00
			187.00		515.19E-03		5.0370E+00
			188.00		513.67E-03		5.0460E+00
			189.00		511.61E-03		5.0370E+00
			190.00		508.03E-03		5.0430E+00
			191.00		506.84E-03		5.0430E+00
			192.00		504.77E-03		5.0340E+00
			193.00		502.39E-03		5.0280E+00
			194.00		499.70E-03		5.0310E+00
			195.00		497.62E-03		5.0400E+00
			196.00		497.32E-03		5.0310E+00
			197.00		496.42E-03		5.0340E+00
			198.00		491.09E-03		5.0520E+00
			199.00		490.49E-03		5.0460E+00
			200.00		488.99E-03		5.0430E+00
			201.00		486.89E-03		5.0340E+00
			202.00		483.62E-03		5.0370E+00
			203.00		482.16E-03		5.0460E+00
			204.00		480.07E-03		5.0430E+00
			205.00		478.00E-03		5.0460E+00
			206.00		476.50E-03		5.0430E+00
			207.00		475.00E-03		5.0400E+00
			208.00		471.74E-03		5.0430E+00
			209.00		470.90E-03		5.0520E+00
			210.00		467.69E-03		5.0610E+00
			211.00		465.28E-03		5.0550E+00
			212.00		463.46E-03		5.0490E+00
			213.00		462.86E-03		5.0490E+00
			214.00		461.31E-03		5.0400E+00
			215.00		458.98E-03		5.0460E+00
			216.00		457.14E-03		5.0400E+00
			217.00		454.82E-03		5.0460E+00
			218.00		452.76E-03		5.0490E+00
			219.00		450.65E-03		5.0460E+00
			220.00		450.00E-03		5.0400E+00
			221.00		447.29E-03		5.0370E+00
			222.00		446.10E-03		5.0370E+00
			223.00		445.30E-03		5.0460E+00
			224.00		442.00E-03		5.0430E+00
			225.00		440.88E-03		5.0490E+00
			226.00		439.36E-03		5.0460E+00
			227.00		436.98E-03		5.0460E+00
			228.00		434.68E-03		5.0520E+00
			229.00		432.56E-03		5.0490E+00
			230.00		431.03E-03		5.0460E+00
			231.00		428.91E-03		5.0430E+00
			232.00		427.72E-03		5.0430E+00
			233.00		424.49E-03		5.0460E+00
			234.00		424.66E-03		5.0370E+00
			235.00		422.28E-03		5.0370E+00
			236.00		419.74E-03		5.0460E+00
			237.00		419.05E-03		5.0400E+00
			238.00		417.01E-03		5.0430E+00
			239.00		415.92E-03		5.0490E+00
			240.00		414.14E-03		5.0490E+00
			241.00		412.01E-03		5.0460E+00
			242.00		409.63E-03		5.0460E+00
			243.00		407.36E-03		5.0520E+00
			244.00		405.34E-03		5.0550E+00
			245.00		404.75E-03		5.0550E+00
			246.00		402.85E-03		5.0490E+00
			247.00		402.62E-03		5.0370E+00
			248.00		400.00E-03		5.0400E+00
			249.00		397.27E-03		5.0520E+00
			250.00		396.55E-03		5.0460E+00
			251.00		395.49E-03		5.0520E+00
			252.00		393.35E-03		5.0490E+00
			253.00		390.37E-03		5.0490E+00
			254.00		389.88E-03		5.0400E+00
			255.00		389.88E-03		5.0400E+00
			256.00		386.22E-03		5.0490E+00
			257.00		384.89E-03		5.0430E+00
			258.00		384.66E-03		5.0460E+00
			259.00		383.93E-03		5.0400E+00
			260.00		381.09E-03		5.0460E+00
			261.00		379.09E-03		5.0490E+00
			262.00		377.67E-03		5.0520E+00
			263.00		376.26E-03		5.0550E+00
			264.00		374.33E-03		5.0490E+00
			265.00		372.25E-03		5.0370E+00
			266.00		370.83E-03		5.0400E+00
			267.00		369.64E-03		5.0400E+00
			268.00		367.64E-03		5.0430E+00
			269.00		366.77E-03		5.0550E+00
			270.00		364.71E-03		5.0670E+00
			271.00		364.39E-03		5.0550E+00
			272.00		362.88E-03		5.0430E+00
			273.00		360.29E-03		5.0460E+00
			274.00		359.10E-03		5.0460E+00
			275.00		357.27E-03		5.0550E+00
			276.00		356.29E-03		5.0520E+00
			277.00		354.97E-03		5.0370E+00
			278.00		353.99E-03		5.0340E+00
			279.00		351.54E-03		5.0520E+00
			280.00		351.22E-03		5.0310E+00
			281.00		348.81E-03		5.0400E+00
			282.00		346.02E-03		5.0460E+00
			283.00		347.23E-03		5.0370E+00
			284.00		345.65E-03		5.0340E+00
			285.00		342.86E-03		5.0400E+00
			286.00		341.65E-03		5.0490E+00
			287.00		340.86E-03		5.0520E+00
			288.00		339.08E-03		5.0430E+00
			289.00		337.71E-03		5.0280E+00
			290.00		335.52E-03		5.0340E+00
			291.00		334.53E-03		5.0310E+00
			292.00		333.14E-03		5.0430E+00
			293.00		332.54E-03		5.0430E+00
			294.00		332.54E-03		5.0430E+00
			295.00		331.55E-03		5.0400E+00
			296.00		328.37E-03		5.0340E+00
			297.00		327.38E-03		5.0400E+00
			298.00		325.79E-03		5.0370E+00
			299.00		324.02E-03		5.0460E+00
			300.00		322.64E-03		5.0490E+00
		END_DATA
	END_SCAN  1
END_SCAN_DATA
